3.991992e+002,6.071094e-001
4.011277e+002,5.980896e-001
4.030562e+002,5.971320e-001
4.049847e+002,5.939292e-001
4.069132e+002,5.934750e-001
4.088417e+002,5.985555e-001
4.107702e+002,6.009260e-001
4.126987e+002,6.111696e-001
4.146272e+002,6.211737e-001
4.165557e+002,6.287162e-001
4.184842e+002,6.500676e-001
4.204127e+002,6.826684e-001
4.223412e+002,6.938988e-001
4.242697e+002,7.149982e-001
4.261982e+002,7.352676e-001
4.281267e+002,7.577913e-001
4.300552e+002,7.825614e-001
4.319837e+002,8.046626e-001
4.339122e+002,8.264739e-001
4.358407e+002,8.525919e-001
4.377692e+002,8.695648e-001
4.396977e+002,8.934268e-001
4.416262e+002,9.309358e-001
4.435547e+002,9.903383e-001
4.454832e+002,1.049230e+000
4.474117e+002,1.108078e+000
4.493401e+002,1.149759e+000
4.512686e+002,1.191513e+000
4.531971e+002,1.235752e+000
4.551256e+002,1.274622e+000
4.570541e+002,1.297964e+000
4.589826e+002,1.346416e+000
4.609111e+002,1.394435e+000
4.628396e+002,1.447068e+000
4.647681e+002,1.482281e+000
4.666966e+002,1.556238e+000
4.686251e+002,1.642322e+000
4.705536e+002,1.716662e+000
4.724821e+002,1.738862e+000
4.744106e+002,1.760134e+000
4.763391e+002,1.737468e+000
4.782676e+002,1.686262e+000
4.801961e+002,1.589816e+000
4.821246e+002,1.515806e+000
4.840531e+002,1.411015e+000
4.859816e+002,1.304575e+000
4.879101e+002,1.200979e+000
4.898386e+002,1.106771e+000
4.917671e+002,1.009662e+000
4.936956e+002,9.238873e-001
4.956241e+002,8.498588e-001
4.975526e+002,7.828312e-001
4.994811e+002,7.291739e-001
5.014096e+002,6.922604e-001
5.033381e+002,6.780641e-001
5.052666e+002,6.922083e-001
5.071951e+002,7.387084e-001
5.091236e+002,8.051755e-001
5.110521e+002,8.777662e-001
5.129806e+002,9.391336e-001
5.149091e+002,9.721801e-001
5.168376e+002,9.805404e-001
5.187661e+002,9.728797e-001
5.206946e+002,9.610821e-001
5.226231e+002,9.488423e-001
5.245516e+002,9.352321e-001
5.264801e+002,9.121374e-001
5.284086e+002,8.811457e-001
5.303371e+002,8.436319e-001
5.322656e+002,8.005123e-001
5.341941e+002,7.583193e-001
5.361226e+002,7.171977e-001
5.380511e+002,6.778067e-001
5.399796e+002,6.404272e-001
5.419081e+002,6.029565e-001
5.438365e+002,5.713140e-001
5.457651e+002,5.454050e-001
5.476936e+002,5.246609e-001
5.496221e+002,5.027422e-001
5.515506e+002,4.762654e-001
5.534791e+002,4.468893e-001
5.554076e+002,4.189905e-001
5.573361e+002,3.951796e-001
5.592646e+002,3.746332e-001
5.611931e+002,3.553761e-001
5.631216e+002,3.378551e-001
5.650500e+002,3.224417e-001
5.669786e+002,3.098362e-001
5.689070e+002,2.997450e-001
5.708356e+002,2.935312e-001
5.727640e+002,2.920693e-001
5.746926e+002,2.951839e-001
5.766210e+002,2.994051e-001
5.785496e+002,2.987046e-001
5.804780e+002,2.909971e-001
5.824066e+002,2.791893e-001
5.843350e+002,2.672151e-001
5.862635e+002,2.563474e-001
5.881920e+002,2.477434e-001
5.901205e+002,2.416713e-001
5.920490e+002,2.378583e-001
5.939775e+002,2.366897e-001
5.959060e+002,2.380450e-001
5.978345e+002,2.415008e-001
5.997631e+002,2.472218e-001
6.016915e+002,2.557840e-001
6.036201e+002,2.671754e-001
6.055485e+002,2.809362e-001
6.074771e+002,2.923118e-001
6.094055e+002,2.948438e-001
6.113340e+002,2.873527e-001
6.132625e+002,2.751465e-001
6.151910e+002,2.639799e-001
6.171195e+002,2.552641e-001
6.190480e+002,2.485985e-001
6.209765e+002,2.441471e-001
6.229050e+002,2.416636e-001
6.248335e+002,2.398313e-001
6.267620e+002,2.387564e-001
6.286905e+002,2.388733e-001
6.306190e+002,2.409357e-001
6.325475e+002,2.442464e-001
6.344760e+002,2.484737e-001
6.364045e+002,2.531390e-001
6.383330e+002,2.581188e-001
6.402615e+002,2.624448e-001
6.421900e+002,2.660340e-001
6.441185e+002,2.693959e-001
6.460470e+002,2.739879e-001
6.479755e+002,2.788347e-001
6.499040e+002,2.846912e-001
6.518325e+002,2.914169e-001
6.537610e+002,3.010679e-001
6.556895e+002,3.130319e-001
6.576180e+002,3.281126e-001
6.595465e+002,3.454121e-001
6.614750e+002,3.644300e-001
6.634035e+002,3.836781e-001
6.653320e+002,4.010583e-001
6.672605e+002,4.235292e-001
6.691890e+002,4.689624e-001
6.711175e+002,4.938691e-001
6.730460e+002,5.252504e-001
6.749745e+002,5.599648e-001
6.769030e+002,5.939994e-001
6.788315e+002,6.251725e-001
6.807599e+002,6.564036e-001
6.826885e+002,6.857889e-001
6.846169e+002,7.217094e-001
6.865455e+002,7.622039e-001
6.884739e+002,8.124480e-001
6.904025e+002,8.630438e-001
6.923309e+002,9.159687e-001
6.942595e+002,9.666452e-001
6.961880e+002,1.020066e+000
6.981165e+002,1.061209e+000
7.000450e+002,1.090791e+000
7.019734e+002,1.100878e+000
7.039020e+002,1.106861e+000
7.058304e+002,1.100297e+000
7.077590e+002,1.093124e+000
7.096874e+002,1.079800e+000
7.116160e+002,1.070348e+000
7.135444e+002,1.061421e+000
7.154730e+002,1.058098e+000
7.174014e+002,1.048418e+000
7.193300e+002,1.028041e+000
7.212584e+002,9.893879e-001
7.231870e+002,9.440832e-001
7.251154e+002,8.910729e-001
7.270439e+002,8.357420e-001
7.289724e+002,7.777142e-001
7.309009e+002,7.227965e-001
7.328294e+002,6.714126e-001
7.347579e+002,6.247995e-001
7.366864e+002,5.827824e-001
7.386149e+002,5.480940e-001
7.405434e+002,5.193713e-001
7.424719e+002,4.964145e-001
7.444004e+002,4.777561e-001
7.463289e+002,4.617670e-001
7.482574e+002,4.457993e-001
7.501859e+002,4.288700e-001
7.521144e+002,4.106434e-001
7.540429e+002,3.917636e-001
7.559714e+002,3.742289e-001
7.578999e+002,3.592579e-001
7.598284e+002,3.466525e-001
7.617569e+002,3.357380e-001
7.636854e+002,3.254836e-001
7.656139e+002,3.152898e-001
7.675424e+002,3.055803e-001
7.694709e+002,2.962436e-001
7.713994e+002,2.877901e-001
7.733279e+002,2.807237e-001
7.752564e+002,2.749233e-001
7.771849e+002,2.696486e-001
7.791134e+002,2.645093e-001
7.810419e+002,2.588493e-001
7.829704e+002,2.529295e-001
7.848989e+002,2.465336e-001
7.868274e+002,2.402155e-001
7.887559e+002,2.341034e-001
7.906844e+002,2.289690e-001
7.926129e+002,2.245792e-001
7.945414e+002,2.217315e-001
7.964699e+002,2.204594e-001
7.983984e+002,2.199697e-001
8.003269e+002,2.194545e-001
8.022554e+002,2.188073e-001
8.041839e+002,2.174772e-001
8.061124e+002,2.156633e-001
8.080409e+002,2.130905e-001
8.099694e+002,2.106276e-001
8.118979e+002,2.086806e-001
8.138264e+002,2.081286e-001
8.157549e+002,2.089173e-001
8.176833e+002,2.111184e-001
8.196119e+002,2.140457e-001
8.215403e+002,2.173919e-001
8.234689e+002,2.203778e-001
8.253973e+002,2.229193e-001
8.273259e+002,2.250544e-001
8.292543e+002,2.274862e-001
8.311829e+002,2.304917e-001
8.331113e+002,2.345322e-001
8.350399e+002,2.396887e-001
8.369683e+002,2.461082e-001
8.388969e+002,2.530524e-001
8.408253e+002,2.601914e-001
8.427538e+002,2.669712e-001
8.446824e+002,2.734913e-001
8.466108e+002,2.796977e-001
8.485394e+002,2.860077e-001
8.504678e+002,2.926408e-001
8.523964e+002,3.004942e-001
8.543248e+002,3.093719e-001
8.562534e+002,3.191206e-001
8.581818e+002,3.297065e-001
8.601104e+002,3.409435e-001
8.620388e+002,3.522983e-001
8.639673e+002,3.636592e-001
8.658958e+002,3.748644e-001
8.678243e+002,3.864280e-001
8.697528e+002,3.986959e-001
8.716813e+002,4.118847e-001
8.736098e+002,4.261448e-001
8.755383e+002,4.413471e-001
8.774668e+002,4.575995e-001
8.793953e+002,4.745155e-001
8.813238e+002,4.921955e-001
8.832523e+002,5.103366e-001
8.851808e+002,5.287740e-001
8.871093e+002,5.475086e-001
8.890378e+002,5.666270e-001
8.909663e+002,5.859717e-001
8.928948e+002,6.061739e-001
8.948233e+002,6.270550e-001
8.967518e+002,6.490757e-001
8.986803e+002,6.718568e-001
9.006088e+002,6.954936e-001
9.025373e+002,7.186294e-001
9.044658e+002,7.415318e-001
9.063943e+002,7.642137e-001
9.083228e+002,7.869665e-001
9.102513e+002,8.087991e-001
9.121798e+002,8.312374e-001
9.141083e+002,8.540587e-001
9.160368e+002,8.783937e-001
9.179653e+002,9.025301e-001
9.198938e+002,9.275942e-001
9.218223e+002,9.534774e-001
9.237508e+002,9.823075e-001
9.256793e+002,1.011982e+000
9.276078e+002,1.044562e+000
9.295363e+002,1.079841e+000
9.314648e+002,1.118412e+000
9.333932e+002,1.157189e+000
9.353218e+002,1.200736e+000
9.372502e+002,1.245609e+000
9.391788e+002,1.293934e+000
9.411072e+002,1.341056e+000
9.430358e+002,1.388554e+000
9.449643e+002,1.430236e+000
9.468928e+002,1.471817e+000
9.488213e+002,1.508301e+000
9.507498e+002,1.546886e+000
9.526783e+002,1.586080e+000
9.546068e+002,1.631455e+000
9.565353e+002,1.669930e+000
9.584637e+002,1.710281e+000
9.603923e+002,1.743449e+000
9.623207e+002,1.780279e+000
9.642493e+002,1.807548e+000
9.661777e+002,1.844016e+000
9.681063e+002,1.871449e+000
9.700347e+002,1.901819e+000
9.719633e+002,1.919268e+000
9.738917e+002,1.948247e+000
9.758203e+002,1.967505e+000
9.777487e+002,1.989811e+000
9.796772e+002,1.999598e+000
9.816057e+002,2.022435e+000
9.835342e+002,2.035781e+000
9.854627e+002,2.060403e+000
9.873912e+002,2.067720e+000
9.893197e+002,2.094494e+000
9.912482e+002,2.109032e+000
9.931768e+002,2.127739e+000
9.951052e+002,2.133121e+000
9.970338e+002,2.152426e+000
9.989622e+002,2.151534e+000
1.000891e+003,2.158364e+000
1.002819e+003,2.147666e+000
1.004748e+003,2.148244e+000
1.006676e+003,2.142984e+000
1.008605e+003,2.136754e+000
1.010533e+003,2.094217e+000
1.012462e+003,2.066634e+000
1.014390e+003,2.026850e+000
1.016319e+003,2.007078e+000
1.018247e+003,1.981982e+000
1.020176e+003,1.969383e+000
1.022104e+003,1.946873e+000
1.024033e+003,1.936532e+000
1.025961e+003,1.914493e+000
1.027890e+003,1.900915e+000
1.029818e+003,1.882259e+000
1.031747e+003,1.874632e+000
1.033675e+003,1.855967e+000
1.035604e+003,1.838357e+000
1.037532e+003,1.812247e+000
1.039461e+003,1.793539e+000
1.041389e+003,1.762449e+000
1.043318e+003,1.733951e+000
1.045246e+003,1.695295e+000
1.047175e+003,1.659587e+000
1.049103e+003,1.620262e+000
1.051032e+003,1.591135e+000
1.052960e+003,1.565748e+000
1.054889e+003,1.549809e+000
1.056817e+003,1.531874e+000
1.058746e+003,1.517351e+000
1.060674e+003,1.497148e+000
1.062603e+003,1.479370e+000
1.064531e+003,1.457954e+000
1.066460e+003,1.442478e+000
1.068388e+003,1.428579e+000
1.070317e+003,1.420658e+000
1.072245e+003,1.413159e+000
1.074174e+003,1.411304e+000
1.076102e+003,1.410713e+000
1.078031e+003,1.414322e+000
1.079959e+003,1.414603e+000
1.081888e+003,1.415468e+000
1.083816e+003,1.407982e+000
1.085745e+003,1.397600e+000
1.087673e+003,1.379826e+000
1.089602e+003,1.363652e+000
1.091530e+003,1.343022e+000
1.093459e+003,1.321286e+000
1.095387e+003,1.296991e+000
1.097316e+003,1.274195e+000
1.099244e+003,1.249292e+000
1.101173e+003,1.226789e+000
1.103101e+003,1.203764e+000
1.105030e+003,1.184404e+000
1.106958e+003,1.164864e+000
1.108887e+003,1.147273e+000
1.110815e+003,1.129420e+000
1.112744e+003,1.113922e+000
1.114672e+003,1.097395e+000
1.116601e+003,1.082233e+000
1.118529e+003,1.065077e+000
1.120458e+003,1.048674e+000
1.122386e+003,1.031953e+000
1.124315e+003,1.016440e+000
1.126243e+003,1.000341e+000
1.128172e+003,9.850403e-001
1.130100e+003,9.691802e-001
1.132029e+003,9.544314e-001
1.133957e+003,9.393317e-001
1.135886e+003,9.251818e-001
1.137814e+003,9.108098e-001
1.139743e+003,8.978014e-001
1.141671e+003,8.846095e-001
1.143600e+003,8.720748e-001
1.145528e+003,8.595747e-001
1.147457e+003,8.483030e-001
1.149385e+003,8.370833e-001
1.151314e+003,8.270189e-001
1.153242e+003,8.172024e-001
1.155171e+003,8.081743e-001
1.157099e+003,7.987542e-001
1.159028e+003,7.904058e-001
1.160956e+003,7.819166e-001
1.162885e+003,7.739676e-001
1.164813e+003,7.658558e-001
1.166742e+003,7.585163e-001
1.168670e+003,7.511781e-001
1.170599e+003,7.444580e-001
1.172527e+003,7.376825e-001
1.174456e+003,7.312655e-001
1.176384e+003,7.246856e-001
1.178313e+003,7.188422e-001
1.180241e+003,7.129703e-001
1.182170e+003,7.072225e-001
1.184098e+003,7.013015e-001
1.186027e+003,6.960997e-001
1.187955e+003,6.908364e-001
1.189884e+003,6.860703e-001
1.191812e+003,6.813684e-001
1.193741e+003,6.769237e-001
1.195669e+003,6.725299e-001
1.197598e+003,6.685277e-001
1.199526e+003,6.640819e-001
1.201455e+003,6.598799e-001
1.203383e+003,6.555353e-001
1.205312e+003,6.514322e-001
1.207240e+003,6.473557e-001
1.209169e+003,6.436320e-001
1.211097e+003,6.397679e-001
1.213026e+003,6.363378e-001
1.214954e+003,6.330130e-001
1.216883e+003,6.298462e-001
1.218811e+003,6.266559e-001
1.220740e+003,6.235853e-001
1.222668e+003,6.200563e-001
1.224597e+003,6.167838e-001
1.226525e+003,6.134327e-001
1.228453e+003,6.105307e-001
1.230382e+003,6.076233e-001
1.232311e+003,6.049588e-001
1.234239e+003,6.023041e-001
1.236167e+003,5.999314e-001
1.238096e+003,5.974359e-001
1.240025e+003,5.951054e-001
1.241953e+003,5.923013e-001
1.243882e+003,5.896446e-001
1.245810e+003,5.870569e-001
1.247739e+003,5.845261e-001
1.249667e+003,5.818883e-001
1.251596e+003,5.798185e-001
1.253524e+003,5.778091e-001
1.255453e+003,5.758091e-001
1.257381e+003,5.737392e-001
1.259310e+003,5.716509e-001
1.261238e+003,5.692165e-001
1.263167e+003,5.669678e-001
1.265095e+003,5.647045e-001
1.267024e+003,5.626873e-001
1.268952e+003,5.606004e-001
1.270880e+003,5.586946e-001
1.272809e+003,5.566100e-001
1.274738e+003,5.547698e-001
1.276666e+003,5.530266e-001
1.278594e+003,5.513917e-001
1.280523e+003,5.494633e-001
1.282452e+003,5.476543e-001
1.284380e+003,5.457004e-001
1.286308e+003,5.437409e-001
1.288237e+003,5.417057e-001
1.290166e+003,5.399967e-001
1.292094e+003,5.382072e-001
1.294022e+003,5.366579e-001
1.295951e+003,5.352685e-001
1.297880e+003,5.338390e-001
1.299808e+003,5.323207e-001
1.301736e+003,5.308851e-001
1.303665e+003,5.291203e-001
1.305594e+003,5.274056e-001
1.307522e+003,5.258120e-001
1.309450e+003,5.242535e-001
1.311379e+003,5.228360e-001
1.313307e+003,5.216286e-001
1.315236e+003,5.204769e-001
1.317164e+003,5.196021e-001
1.319093e+003,5.182574e-001
1.321021e+003,5.168163e-001
1.322950e+003,5.153768e-001
1.324878e+003,5.138387e-001
1.326807e+003,5.122328e-001
1.328735e+003,5.107423e-001
1.330664e+003,5.092794e-001
1.332592e+003,5.081316e-001
1.334521e+003,5.072671e-001
1.336449e+003,5.067444e-001
1.338378e+003,5.063640e-001
1.340307e+003,5.051436e-001
1.342235e+003,5.035719e-001
1.344163e+003,5.024266e-001
1.346092e+003,5.011592e-001
1.348021e+003,5.000293e-001
1.349949e+003,4.987240e-001
1.351877e+003,4.975955e-001
1.353806e+003,4.967361e-001
1.355734e+003,4.959989e-001
1.357663e+003,4.954369e-001
1.359591e+003,4.952533e-001
1.361520e+003,4.952244e-001
1.363448e+003,4.940748e-001
1.365377e+003,4.926659e-001
1.367305e+003,4.919724e-001
1.369234e+003,4.908742e-001
1.371162e+003,4.900972e-001
1.373091e+003,4.898225e-001
1.375019e+003,4.889930e-001
1.376948e+003,4.880525e-001
1.378876e+003,4.874839e-001
1.380805e+003,4.867824e-001
1.382733e+003,4.862158e-001
1.384662e+003,4.859525e-001
1.386590e+003,4.858472e-001
1.388519e+003,4.843470e-001
1.390447e+003,4.832007e-001
1.392376e+003,4.828353e-001
1.394304e+003,4.829406e-001
1.396233e+003,4.823229e-001
1.398161e+003,4.818017e-001
1.400090e+003,4.806047e-001
1.402018e+003,4.800215e-001
1.403947e+003,4.798968e-001
1.405875e+003,4.791239e-001
1.407804e+003,4.782271e-001
1.409732e+003,4.776831e-001
1.411661e+003,4.769947e-001
1.413589e+003,4.763804e-001
1.415518e+003,4.763049e-001
1.417446e+003,4.767635e-001
1.419375e+003,4.757780e-001
1.421303e+003,4.747675e-001
1.423232e+003,4.743414e-001
1.425160e+003,4.732565e-001
1.427089e+003,4.726724e-001
1.429017e+003,4.724207e-001
1.430946e+003,4.712562e-001
1.432874e+003,4.703514e-001
1.434803e+003,4.701093e-001
1.436731e+003,4.692072e-001
1.438660e+003,4.675613e-001
1.440588e+003,4.667829e-001
1.442517e+003,4.661474e-001
1.444445e+003,4.657766e-001
1.446374e+003,4.656905e-001
1.448302e+003,4.651307e-001
1.450231e+003,4.643413e-001
1.452159e+003,4.639894e-001
1.454088e+003,4.642868e-001
1.456016e+003,4.658112e-001
1.457945e+003,4.648422e-001
1.459873e+003,4.625273e-001
1.461802e+003,4.618329e-001
1.463730e+003,4.620598e-001
1.465659e+003,4.614155e-001
1.467587e+003,4.606276e-001
1.469516e+003,4.607089e-001
1.471444e+003,4.619629e-001
1.473373e+003,4.617854e-001
1.475301e+003,4.601581e-001
1.477230e+003,4.587063e-001
1.479158e+003,4.583340e-001
1.481087e+003,4.581506e-001
1.483015e+003,4.577282e-001
1.484944e+003,4.579216e-001
1.486872e+003,4.588233e-001
1.488801e+003,4.594276e-001
1.490729e+003,4.576747e-001
1.492658e+003,4.561158e-001
1.494586e+003,4.563032e-001
1.496515e+003,4.568593e-001
1.498443e+003,4.561519e-001
1.500372e+003,4.550461e-001
1.502300e+003,4.547943e-001
1.504229e+003,4.555220e-001
1.506157e+003,4.581783e-001
1.508086e+003,4.563720e-001
1.510014e+003,4.537882e-001
1.511943e+003,4.521206e-001
1.513871e+003,4.516474e-001
1.515800e+003,4.519876e-001
1.517728e+003,4.517179e-001
1.519657e+003,4.517534e-001
1.521585e+003,4.522037e-001
1.523514e+003,4.504164e-001
1.525442e+003,4.495738e-001
1.527371e+003,4.479776e-001
1.529299e+003,4.463732e-001
1.531228e+003,4.461341e-001
1.533156e+003,4.461487e-001
1.535085e+003,4.442883e-001
1.537013e+003,4.441724e-001
1.538942e+003,4.460307e-001
1.540870e+003,4.476292e-001
1.542799e+003,4.452944e-001
1.544727e+003,4.426737e-001
1.546656e+003,4.403877e-001
1.548584e+003,4.399141e-001
1.550513e+003,4.390605e-001
1.552441e+003,4.386734e-001
1.554370e+003,4.390034e-001
1.556298e+003,4.394491e-001
1.558227e+003,4.412084e-001
1.560155e+003,4.380215e-001
1.562084e+003,4.365181e-001
1.564012e+003,4.362541e-001
1.565941e+003,4.360526e-001
1.567869e+003,4.363844e-001
1.569798e+003,4.359305e-001
1.571726e+003,4.345299e-001
1.573655e+003,4.345511e-001
1.575583e+003,4.353368e-001
1.577512e+003,4.341870e-001
1.579440e+003,4.331393e-001
1.581369e+003,4.330001e-001
1.583297e+003,4.331238e-001
1.585226e+003,4.332164e-001
1.587154e+003,4.334079e-001
1.589083e+003,4.335926e-001
1.591011e+003,4.334596e-001
1.592940e+003,4.333694e-001
1.594868e+003,4.332726e-001
1.596797e+003,4.328474e-001
1.598725e+003,4.327505e-001
1.600654e+003,4.332401e-001
1.602582e+003,4.338104e-001
1.604511e+003,4.340912e-001
1.606439e+003,4.345991e-001
1.608368e+003,4.350325e-001
1.610296e+003,4.348687e-001
1.612225e+003,4.346513e-001
1.614153e+003,4.351982e-001
1.616082e+003,4.362999e-001
1.618010e+003,4.355052e-001
1.619939e+003,4.350155e-001
1.621867e+003,4.358172e-001
1.623796e+003,4.362316e-001
1.625724e+003,4.359049e-001
1.627653e+003,4.360440e-001
1.629581e+003,4.356233e-001
1.631510e+003,4.356146e-001
1.633438e+003,4.364373e-001
1.635367e+003,4.380467e-001
1.637295e+003,4.366454e-001
1.639224e+003,4.351542e-001
1.641152e+003,4.347751e-001
1.643081e+003,4.353609e-001
1.645009e+003,4.370570e-001
1.646938e+003,4.392623e-001
1.648866e+003,4.377838e-001
1.650795e+003,4.378855e-001
1.652723e+003,4.396155e-001
1.654652e+003,4.371009e-001
1.656580e+003,4.352662e-001
1.658509e+003,4.344794e-001
1.660437e+003,4.347783e-001
1.662366e+003,4.355180e-001
1.664294e+003,4.348966e-001
1.666223e+003,4.350120e-001
1.668151e+003,4.364830e-001
1.670080e+003,4.374520e-001
1.672008e+003,4.364328e-001
1.673937e+003,4.361531e-001
1.675865e+003,4.354327e-001
1.677794e+003,4.347762e-001
1.679722e+003,4.350686e-001
1.681651e+003,4.359824e-001
1.683579e+003,4.374385e-001
1.685508e+003,4.360123e-001
1.687436e+003,4.351388e-001
1.689365e+003,4.346693e-001
1.691293e+003,4.338959e-001
1.693222e+003,4.340429e-001
1.695150e+003,4.352486e-001
1.697079e+003,4.358423e-001
1.699007e+003,4.352083e-001
1.700936e+003,4.334121e-001
1.702864e+003,4.328062e-001
1.704793e+003,4.328541e-001
1.706721e+003,4.320015e-001
1.708650e+003,4.310205e-001
1.710578e+003,4.307330e-001
1.712507e+003,4.309999e-001
1.714435e+003,4.322338e-001
1.716364e+003,4.330338e-001
1.718292e+003,4.305502e-001
1.720221e+003,4.283737e-001
1.722149e+003,4.276659e-001
1.724078e+003,4.272079e-001
1.726006e+003,4.268167e-001
1.727935e+003,4.269474e-001
1.729863e+003,4.276632e-001
1.731792e+003,4.284200e-001
1.733720e+003,4.286516e-001
1.735649e+003,4.267278e-001
1.737577e+003,4.260730e-001
1.739506e+003,4.255953e-001
1.741434e+003,4.248560e-001
1.743363e+003,4.246250e-001
1.745291e+003,4.245754e-001
1.747220e+003,4.249324e-001
1.749148e+003,4.250494e-001
1.751077e+003,4.238318e-001
1.753005e+003,4.224818e-001
1.754934e+003,4.220104e-001
1.756862e+003,4.218110e-001
1.758791e+003,4.211147e-001
1.760719e+003,4.208072e-001
1.762648e+003,4.201534e-001
1.764576e+003,4.196358e-001
1.766505e+003,4.198204e-001
1.768433e+003,4.204779e-001
1.770362e+003,4.213030e-001
1.772290e+003,4.216770e-001
1.774219e+003,4.204230e-001
1.776147e+003,4.194784e-001
1.778076e+003,4.189386e-001
1.780004e+003,4.186425e-001
1.781933e+003,4.179777e-001
1.783861e+003,4.176617e-001
1.785790e+003,4.175587e-001
1.787718e+003,4.176542e-001
1.789647e+003,4.183850e-001
1.791575e+003,4.193047e-001
1.793504e+003,4.189216e-001
1.795432e+003,4.184192e-001
1.797361e+003,4.179646e-001
1.799289e+003,4.176679e-001
1.801218e+003,4.169384e-001
1.803146e+003,4.160026e-001
1.805075e+003,4.155352e-001
1.807003e+003,4.156700e-001
1.808932e+003,4.159849e-001
1.810860e+003,4.162103e-001
1.812789e+003,4.158250e-001
1.814717e+003,4.153309e-001
1.816646e+003,4.150547e-001
1.818574e+003,4.147073e-001
1.820503e+003,4.142438e-001
1.822431e+003,4.140922e-001
1.824360e+003,4.139916e-001
1.826288e+003,4.137100e-001
1.828217e+003,4.139233e-001
1.830145e+003,4.141701e-001
1.832074e+003,4.135924e-001
1.834002e+003,4.133645e-001
1.835931e+003,4.133498e-001
1.837859e+003,4.130951e-001
1.839788e+003,4.126295e-001
1.841716e+003,4.126905e-001
1.843645e+003,4.128768e-001
1.845573e+003,4.124621e-001
1.847502e+003,4.119274e-001
1.849430e+003,4.115556e-001
1.851359e+003,4.115654e-001
1.853287e+003,4.118403e-001
1.855216e+003,4.119860e-001
1.857144e+003,4.121800e-001
1.859073e+003,4.120667e-001
1.861001e+003,4.117757e-001
1.862930e+003,4.114266e-001
1.864858e+003,4.114270e-001
1.866786e+003,4.119882e-001
1.868715e+003,4.122976e-001
1.870644e+003,4.115864e-001
1.872572e+003,4.112140e-001
1.874500e+003,4.112783e-001
1.876429e+003,4.114388e-001
1.878358e+003,4.114834e-001
1.880286e+003,4.114586e-001
1.882215e+003,4.111915e-001
1.884143e+003,4.108569e-001
1.886072e+003,4.105969e-001
1.888000e+003,4.106790e-001
1.889929e+003,4.107157e-001
1.891857e+003,4.106037e-001
1.893786e+003,4.108958e-001
1.895714e+003,4.112209e-001
1.897643e+003,4.111871e-001
1.899571e+003,4.112274e-001
1.901500e+003,4.111768e-001
1.903428e+003,4.109573e-001
1.905357e+003,4.106606e-001
1.907285e+003,4.107019e-001
1.909214e+003,4.107762e-001
1.911142e+003,4.105829e-001
1.913071e+003,4.104646e-001
1.914999e+003,4.108558e-001
1.916927e+003,4.114342e-001
1.918856e+003,4.116287e-001
1.920785e+003,4.116843e-001
1.922713e+003,4.118882e-001
1.924641e+003,4.114532e-001
1.926570e+003,4.110519e-001
1.928499e+003,4.109133e-001
1.930427e+003,4.109440e-001
1.932355e+003,4.110215e-001
1.934284e+003,4.112460e-001
1.936213e+003,4.114616e-001
1.938141e+003,4.117514e-001
1.940069e+003,4.121245e-001
1.941998e+003,4.125280e-001
1.943927e+003,4.124158e-001
1.945855e+003,4.120299e-001
1.947783e+003,4.115992e-001
1.949712e+003,4.114577e-001
1.951641e+003,4.114251e-001
1.953569e+003,4.115218e-001
1.955497e+003,4.116849e-001
1.957426e+003,4.118446e-001
1.959354e+003,4.120108e-001
1.961283e+003,4.121777e-001
1.963211e+003,4.121617e-001
1.965140e+003,4.122648e-001
1.967068e+003,4.123118e-001
1.968997e+003,4.119748e-001
1.970925e+003,4.116431e-001
1.972854e+003,4.115138e-001
1.974782e+003,4.115860e-001
1.976711e+003,4.118144e-001
1.978639e+003,4.119409e-001
1.980568e+003,4.119443e-001
1.982496e+003,4.118508e-001
1.984425e+003,4.117504e-001
1.986354e+003,4.116382e-001
1.988282e+003,4.116322e-001
1.990210e+003,4.116591e-001
1.992139e+003,4.116953e-001
1.994068e+003,4.114453e-001
1.995996e+003,4.113077e-001
1.997924e+003,4.113524e-001
1.999853e+003,4.114164e-001
2.001781e+003,4.114407e-001
2.003710e+003,4.114487e-001
2.005638e+003,4.112987e-001
2.007567e+003,4.111398e-001
2.009495e+003,4.109849e-001
2.011424e+003,4.109064e-001
2.013352e+003,4.108745e-001
2.015281e+003,4.110880e-001
2.017209e+003,4.113922e-001
2.019138e+003,4.113916e-001
2.021066e+003,4.112456e-001
2.022995e+003,4.111750e-001
2.024923e+003,4.111325e-001
2.026852e+003,4.110446e-001
2.028780e+003,4.109356e-001
2.030709e+003,4.108326e-001
2.032637e+003,4.107697e-001
2.034566e+003,4.108337e-001
2.036494e+003,4.109606e-001
2.038423e+003,4.111799e-001
2.040351e+003,4.114169e-001
2.042280e+003,4.114617e-001
2.044208e+003,4.112417e-001
2.046137e+003,4.110493e-001
2.048065e+003,4.109125e-001
2.049994e+003,4.107346e-001
2.051922e+003,4.105492e-001
2.053851e+003,4.105200e-001
2.055779e+003,4.105899e-001
2.057708e+003,4.108328e-001
2.059636e+003,4.110557e-001
2.061565e+003,4.111100e-001
2.063493e+003,4.111467e-001
2.065422e+003,4.110772e-001
2.067350e+003,4.106962e-001
2.069279e+003,4.103935e-001
2.071207e+003,4.102724e-001
2.073136e+003,4.102289e-001
2.075064e+003,4.102348e-001
2.076993e+003,4.103422e-001
2.078921e+003,4.104626e-001
2.080850e+003,4.106301e-001
2.082778e+003,4.106737e-001
2.084707e+003,4.106058e-001
2.086635e+003,4.104766e-001
2.088564e+003,4.102186e-001
2.090492e+003,4.099417e-001
2.092421e+003,4.097217e-001
2.094349e+003,4.095512e-001
2.096278e+003,4.095556e-001
2.098206e+003,4.096759e-001
2.100135e+003,4.098363e-001
2.102063e+003,4.099689e-001
2.103992e+003,4.101161e-001
2.105920e+003,4.101358e-001
2.107849e+003,4.099438e-001
2.109777e+003,4.096837e-001
2.111706e+003,4.094157e-001
2.113634e+003,4.092482e-001
2.115563e+003,4.092132e-001
2.117491e+003,4.092509e-001
2.119420e+003,4.094161e-001
2.121348e+003,4.096091e-001
2.123277e+003,4.096820e-001
2.125205e+003,4.097430e-001
2.127134e+003,4.097416e-001
2.129062e+003,4.096279e-001
2.130991e+003,4.094832e-001
2.132919e+003,4.092233e-001
2.134848e+003,4.090407e-001
2.136776e+003,4.089974e-001
2.138705e+003,4.090911e-001
2.140633e+003,4.092629e-001
2.142562e+003,4.095534e-001
2.144490e+003,4.097115e-001
2.146419e+003,4.097626e-001
2.148347e+003,4.097180e-001
2.150276e+003,4.095969e-001
2.152204e+003,4.093901e-001
2.154133e+003,4.092261e-001
2.156061e+003,4.090868e-001
2.157990e+003,4.090659e-001
2.159918e+003,4.091161e-001
2.161847e+003,4.092546e-001
2.163775e+003,4.094527e-001
2.165704e+003,4.095765e-001
2.167632e+003,4.097183e-001
2.169561e+003,4.098579e-001
2.171489e+003,4.097776e-001
2.173418e+003,4.095820e-001
2.175346e+003,4.093209e-001
2.177275e+003,4.092404e-001
2.179203e+003,4.092695e-001
2.181132e+003,4.093723e-001
2.183060e+003,4.095528e-001
2.184989e+003,4.097821e-001
2.186917e+003,4.100069e-001
2.188846e+003,4.100633e-001
2.190774e+003,4.099996e-001
2.192703e+003,4.099202e-001
2.194631e+003,4.097990e-001
2.196560e+003,4.097565e-001
2.198488e+003,4.096863e-001
2.200417e+003,4.096614e-001
2.202345e+003,4.097024e-001
2.204274e+003,4.098874e-001
2.206202e+003,4.101356e-001
2.208131e+003,4.102965e-001
2.210059e+003,4.103519e-001
2.211988e+003,4.103781e-001
2.213916e+003,4.103862e-001
2.215845e+003,4.103480e-001
2.217773e+003,4.103267e-001
2.219702e+003,4.104395e-001
2.221630e+003,4.104231e-001
2.223559e+003,4.103917e-001
2.225487e+003,4.104877e-001
2.227416e+003,4.106917e-001
2.229344e+003,4.108186e-001
2.231273e+003,4.108959e-001
2.233201e+003,4.109016e-001
2.235130e+003,4.109567e-001
2.237058e+003,4.110768e-001
2.238987e+003,4.111108e-001
2.240915e+003,4.111338e-001
2.242844e+003,4.112112e-001
2.244772e+003,4.112436e-001
2.246701e+003,4.113346e-001
2.248629e+003,4.114565e-001
2.250558e+003,4.116018e-001
2.252486e+003,4.117700e-001
2.254415e+003,4.118424e-001
2.256343e+003,4.118802e-001
2.258272e+003,4.119601e-001
2.260200e+003,4.121017e-001
2.262129e+003,4.123298e-001
2.264057e+003,4.125201e-001
2.265986e+003,4.125813e-001
2.267914e+003,4.125229e-001
2.269843e+003,4.125618e-001
2.271771e+003,4.126542e-001
2.273700e+003,4.127494e-001
2.275628e+003,4.126860e-001
2.277557e+003,4.126247e-001
2.279485e+003,4.126570e-001
2.281414e+003,4.126900e-001
2.283342e+003,4.127722e-001
2.285271e+003,4.130496e-001
2.287199e+003,4.133863e-001
2.289128e+003,4.137111e-001
2.291056e+003,4.139894e-001
2.292985e+003,4.143131e-001
2.294913e+003,4.147120e-001
2.296842e+003,4.152156e-001
2.298770e+003,4.157139e-001
2.300699e+003,4.163073e-001
2.302627e+003,4.168561e-001
2.304556e+003,4.176233e-001
2.306484e+003,4.186567e-001
2.308413e+003,4.196841e-001
2.310341e+003,4.204520e-001
2.312270e+003,4.210093e-001
2.314198e+003,4.213443e-001
2.316127e+003,4.219657e-001
2.318055e+003,4.232816e-001
2.319984e+003,4.252290e-001
2.321912e+003,4.268636e-001
2.323841e+003,4.280951e-001
2.325769e+003,4.290753e-001
2.327698e+003,4.301445e-001
2.329626e+003,4.311326e-001
2.331555e+003,4.314853e-001
2.333483e+003,4.314047e-001
2.335412e+003,4.320738e-001
2.337340e+003,4.327103e-001
2.339269e+003,4.330148e-001
2.341197e+003,4.339558e-001
2.343126e+003,4.341447e-001
2.345054e+003,4.323301e-001
2.346983e+003,4.288870e-001
2.348911e+003,4.277632e-001
2.350840e+003,4.302359e-001
2.352768e+003,4.337621e-001
2.354697e+003,4.368223e-001
2.356625e+003,4.396634e-001
2.358554e+003,4.412151e-001
2.360482e+003,4.414531e-001
2.362411e+003,4.402652e-001
2.364339e+003,4.390419e-001
2.366268e+003,4.377002e-001
2.368196e+003,4.355472e-001
2.370125e+003,4.328211e-001
2.372053e+003,4.299823e-001
2.373982e+003,4.272276e-001
2.375910e+003,4.245614e-001
2.377839e+003,4.222267e-001
2.379767e+003,4.201843e-001
2.381696e+003,4.183073e-001
2.383624e+003,4.169424e-001
2.385553e+003,4.161837e-001
2.387481e+003,4.159046e-001
2.389410e+003,4.159199e-001
2.391338e+003,4.159654e-001
2.393267e+003,4.159136e-001
2.395195e+003,4.158529e-001
2.397124e+003,4.157192e-001
2.399052e+003,4.155669e-001
2.400981e+003,4.154725e-001
2.402909e+003,4.155635e-001
2.404838e+003,4.158399e-001
2.406766e+003,4.161365e-001
2.408695e+003,4.164802e-001
2.410623e+003,4.167263e-001
2.412552e+003,4.168435e-001
2.414480e+003,4.168030e-001
2.416409e+003,4.167344e-001
2.418337e+003,4.166026e-001
2.420266e+003,4.164334e-001
2.422194e+003,4.163809e-001
2.424123e+003,4.165624e-001
2.426051e+003,4.168307e-001
2.427980e+003,4.171625e-001
2.429908e+003,4.174266e-001
2.431837e+003,4.176604e-001
2.433765e+003,4.176959e-001
2.435694e+003,4.176823e-001
2.437622e+003,4.176219e-001
2.439551e+003,4.173892e-001
2.441479e+003,4.172046e-001
2.443408e+003,4.172405e-001
2.445336e+003,4.174272e-001
2.447265e+003,4.176788e-001
2.449193e+003,4.180351e-001
2.451122e+003,4.183339e-001
2.453050e+003,4.185410e-001
2.454979e+003,4.186355e-001
2.456907e+003,4.186389e-001
2.458836e+003,4.185244e-001
2.460764e+003,4.183244e-001
2.462693e+003,4.181876e-001
2.464621e+003,4.182654e-001
2.466550e+003,4.185228e-001
2.468478e+003,4.187708e-001
2.470406e+003,4.190640e-001
2.472335e+003,4.193548e-001
2.474264e+003,4.195146e-001
2.476192e+003,4.196063e-001
2.478121e+003,4.196212e-001
2.480049e+003,4.195004e-001
2.481978e+003,4.193496e-001
2.483906e+003,4.192683e-001
2.485834e+003,4.193597e-001
2.487763e+003,4.195610e-001
2.489692e+003,4.197798e-001
2.491620e+003,4.200835e-001
2.493549e+003,4.203767e-001
2.495477e+003,4.205229e-001
2.497406e+003,4.205866e-001
2.499334e+003,4.205012e-001
2.501262e+003,4.203602e-001
2.503191e+003,4.202705e-001
2.505120e+003,4.202240e-001
2.507048e+003,4.202709e-001
2.508977e+003,4.204824e-001
2.510905e+003,4.207103e-001
2.512833e+003,4.210348e-001
2.514762e+003,4.213344e-001
2.516690e+003,4.214209e-001
2.518619e+003,4.213970e-001
2.520548e+003,4.213747e-001
2.522476e+003,4.212674e-001
2.524405e+003,4.211986e-001
2.526333e+003,4.212134e-001
2.528261e+003,4.213147e-001
2.530190e+003,4.215233e-001
2.532119e+003,4.217857e-001
2.534047e+003,4.220698e-001
2.535976e+003,4.222482e-001
2.537904e+003,4.223003e-001
2.539833e+003,4.222775e-001
2.541761e+003,4.222176e-001
2.543689e+003,4.221453e-001
2.545618e+003,4.220372e-001
2.547547e+003,4.220435e-001
2.549475e+003,4.221810e-001
2.551404e+003,4.224136e-001
2.553332e+003,4.227324e-001
2.555260e+003,4.230259e-001
2.557189e+003,4.231536e-001
2.559117e+003,4.232033e-001
2.561046e+003,4.231273e-001
2.562975e+003,4.229680e-001
2.564903e+003,4.228884e-001
2.566832e+003,4.228734e-001
2.568760e+003,4.230042e-001
2.570688e+003,4.233024e-001
2.572617e+003,4.235493e-001
2.574545e+003,4.238598e-001
2.576474e+003,4.241200e-001
2.578403e+003,4.242651e-001
2.580331e+003,4.242992e-001
2.582260e+003,4.242298e-001
2.584188e+003,4.241284e-001
2.586116e+003,4.239727e-001
2.588045e+003,4.239776e-001
2.589973e+003,4.241200e-001
2.591902e+003,4.243563e-001
2.593831e+003,4.246529e-001
2.595759e+003,4.249752e-001
2.597688e+003,4.252769e-001
2.599616e+003,4.254057e-001
2.601544e+003,4.253213e-001
2.603473e+003,4.251819e-001
2.605401e+003,4.251058e-001
2.607330e+003,4.250853e-001
2.609259e+003,4.251054e-001
2.611187e+003,4.252757e-001
2.613115e+003,4.255838e-001
2.615044e+003,4.259263e-001
2.616972e+003,4.262216e-001
2.618901e+003,4.264750e-001
2.620830e+003,4.266410e-001
2.622758e+003,4.266858e-001
2.624687e+003,4.266120e-001
2.626615e+003,4.264792e-001
2.628543e+003,4.263521e-001
2.630472e+003,4.262580e-001
2.632400e+003,4.264978e-001
2.634329e+003,4.268448e-001
2.636258e+003,4.271784e-001
2.638186e+003,4.275981e-001
2.640115e+003,4.278188e-001
2.642043e+003,4.277370e-001
2.643971e+003,4.275968e-001
2.645900e+003,4.275307e-001
2.647828e+003,4.275179e-001
2.649757e+003,4.275078e-001
2.651686e+003,4.275248e-001
2.653614e+003,4.276322e-001
2.655542e+003,4.278684e-001
2.657471e+003,4.281850e-001
2.659399e+003,4.285281e-001
2.661328e+003,4.288311e-001
2.663256e+003,4.289328e-001
2.665185e+003,4.287781e-001
2.667114e+003,4.286169e-001
2.669042e+003,4.285717e-001
2.670970e+003,4.285806e-001
2.672899e+003,4.286656e-001
2.674827e+003,4.289270e-001
2.676756e+003,4.293793e-001
2.678684e+003,4.298069e-001
2.680613e+003,4.300071e-001
2.682542e+003,4.299431e-001
2.684470e+003,4.299287e-001
2.686398e+003,4.299158e-001
2.688327e+003,4.298433e-001
2.690255e+003,4.297645e-001
2.692184e+003,4.297904e-001
2.694112e+003,4.298565e-001
2.696041e+003,4.300131e-001
2.697969e+003,4.303645e-001
2.699898e+003,4.306700e-001
2.701826e+003,4.308067e-001
2.703755e+003,4.309411e-001
2.705683e+003,4.311140e-001
2.707612e+003,4.311641e-001
2.709540e+003,4.310564e-001
2.711469e+003,4.309670e-001
2.713397e+003,4.310392e-001
2.715326e+003,4.311660e-001
2.717254e+003,4.313458e-001
2.719183e+003,4.316048e-001
2.721111e+003,4.320107e-001
2.723040e+003,4.322830e-001
2.724969e+003,4.324785e-001
2.726897e+003,4.325421e-001
2.728825e+003,4.324585e-001
2.730754e+003,4.323483e-001
2.732682e+003,4.321822e-001
2.734611e+003,4.322741e-001
2.736539e+003,4.325094e-001
2.738468e+003,4.326383e-001
2.740396e+003,4.328140e-001
2.742325e+003,4.331627e-001
2.744253e+003,4.334435e-001
2.746182e+003,4.337257e-001
2.748110e+003,4.337284e-001
2.750039e+003,4.335316e-001
2.751967e+003,4.333785e-001
2.753896e+003,4.334200e-001
2.755824e+003,4.335707e-001
2.757753e+003,4.336354e-001
2.759681e+003,4.337895e-001
2.761610e+003,4.339656e-001
2.763538e+003,4.341279e-001
2.765467e+003,4.343143e-001
2.767395e+003,4.344294e-001
2.769324e+003,4.344738e-001
2.771252e+003,4.347318e-001
2.773181e+003,4.349047e-001
2.775109e+003,4.348158e-001
2.777038e+003,4.346586e-001
2.778966e+003,4.347565e-001
2.780895e+003,4.350301e-001
2.782823e+003,4.352566e-001
2.784752e+003,4.354537e-001
2.786680e+003,4.357632e-001
2.788609e+003,4.359648e-001
2.790537e+003,4.359266e-001
2.792466e+003,4.359364e-001
2.794394e+003,4.359587e-001
2.796323e+003,4.360984e-001
2.798251e+003,4.362442e-001
2.800180e+003,4.362087e-001
2.802108e+003,4.363620e-001
2.804037e+003,4.366465e-001
2.805965e+003,4.367924e-001
2.807894e+003,4.369318e-001
2.809822e+003,4.369459e-001
2.811751e+003,4.367840e-001
2.813679e+003,4.368506e-001
2.815608e+003,4.370031e-001
2.817536e+003,4.371470e-001
2.819465e+003,4.373373e-001
2.821393e+003,4.376075e-001
2.823322e+003,4.378176e-001
2.825250e+003,4.378662e-001
2.827179e+003,4.379793e-001
2.829107e+003,4.380865e-001
2.831036e+003,4.382466e-001
2.832964e+003,4.384962e-001
2.834893e+003,4.386581e-001
2.836821e+003,4.388905e-001
2.838750e+003,4.391869e-001
2.840678e+003,4.391781e-001
2.842607e+003,4.392965e-001
2.844535e+003,4.396616e-001
2.846464e+003,4.400282e-001
2.848392e+003,4.400885e-001
2.850321e+003,4.401106e-001
2.852249e+003,4.402737e-001
2.854178e+003,4.404406e-001
2.856106e+003,4.406037e-001
2.858035e+003,4.408087e-001
2.859963e+003,4.409789e-001
2.861892e+003,4.410232e-001
2.863820e+003,4.412305e-001
2.865749e+003,4.415433e-001
2.867677e+003,4.415541e-001
2.869606e+003,4.415905e-001
2.871534e+003,4.419405e-001
2.873463e+003,4.420887e-001
2.875391e+003,4.419752e-001
2.877320e+003,4.418874e-001
2.879248e+003,4.419483e-001
2.881177e+003,4.421347e-001
2.883105e+003,4.424343e-001
2.885034e+003,4.427281e-001
2.886962e+003,4.428996e-001
2.888891e+003,4.430436e-001
2.890819e+003,4.432342e-001
2.892748e+003,4.434854e-001
2.894676e+003,4.437399e-001
2.896605e+003,4.436403e-001
2.898533e+003,4.435340e-001
2.900462e+003,4.437789e-001
2.902390e+003,4.441360e-001
2.904319e+003,4.443553e-001
2.906247e+003,4.445560e-001
2.908176e+003,4.449292e-001
2.910104e+003,4.452625e-001
2.912033e+003,4.454921e-001
2.913961e+003,4.456545e-001
2.915890e+003,4.457913e-001
2.917818e+003,4.457527e-001
2.919747e+003,4.455919e-001
2.921675e+003,4.456726e-001
2.923604e+003,4.459201e-001
2.925532e+003,4.461370e-001
2.927461e+003,4.464483e-001
2.929389e+003,4.467541e-001
2.931318e+003,4.466606e-001
2.933246e+003,4.465335e-001
2.935175e+003,4.465054e-001
2.937103e+003,4.464404e-001
2.939032e+003,4.464229e-001
2.940960e+003,4.467607e-001
2.942889e+003,4.471679e-001
2.944817e+003,4.473573e-001
2.946746e+003,4.474314e-001
2.948674e+003,4.473769e-001
2.950603e+003,4.475015e-001
2.952531e+003,4.476340e-001
2.954460e+003,4.475382e-001
2.956388e+003,4.474017e-001
2.958317e+003,4.473639e-001
2.960245e+003,4.475258e-001
2.962174e+003,4.475959e-001
2.964102e+003,4.476734e-001
2.966031e+003,4.478236e-001
2.967959e+003,4.479609e-001
2.969888e+003,4.482781e-001
2.971816e+003,4.486541e-001
2.973745e+003,4.487761e-001
2.975673e+003,4.487134e-001
2.977602e+003,4.487664e-001
2.979530e+003,4.489303e-001
2.981459e+003,4.487749e-001
2.983387e+003,4.485386e-001
2.985316e+003,4.486418e-001
2.987244e+003,4.490166e-001
2.989173e+003,4.493829e-001
2.991101e+003,4.496413e-001
2.993030e+003,4.497089e-001
2.994958e+003,4.496663e-001
2.996887e+003,4.497121e-001
2.998815e+003,4.496191e-001
3.000744e+003,4.495609e-001
3.002672e+003,4.496528e-001
3.004601e+003,4.499199e-001
3.006529e+003,4.501528e-001
3.008458e+003,4.504515e-001
3.010386e+003,4.508217e-001
3.012315e+003,4.509746e-001
3.014243e+003,4.511327e-001
3.016172e+003,4.511734e-001
3.018100e+003,4.510048e-001
3.020029e+003,4.509742e-001
3.021957e+003,4.510729e-001
3.023886e+003,4.512677e-001
3.025814e+003,4.512866e-001
3.027743e+003,4.514356e-001
3.029671e+003,4.519136e-001
3.031600e+003,4.523476e-001
3.033528e+003,4.525098e-001
3.035457e+003,4.525100e-001
3.037385e+003,4.523768e-001
3.039314e+003,4.525680e-001
3.041242e+003,4.528968e-001
3.043171e+003,4.530240e-001
3.045099e+003,4.531715e-001
3.047028e+003,4.533389e-001
3.048956e+003,4.535783e-001
3.050885e+003,4.537092e-001
3.052813e+003,4.537182e-001
3.054742e+003,4.538866e-001
3.056670e+003,4.540743e-001
3.058599e+003,4.540504e-001
3.060527e+003,4.541737e-001
3.062456e+003,4.544289e-001
3.064384e+003,4.546958e-001
3.066313e+003,4.550157e-001
3.068241e+003,4.551660e-001
3.070170e+003,4.551973e-001
3.072098e+003,4.552103e-001
3.074027e+003,4.552913e-001
3.075955e+003,4.556507e-001
3.077884e+003,4.561015e-001
3.079812e+003,4.563987e-001
3.081741e+003,4.566357e-001
3.083669e+003,4.565603e-001
3.085598e+003,4.565167e-001
3.087526e+003,4.567118e-001
3.089455e+003,4.568313e-001
3.091383e+003,4.569599e-001
3.093312e+003,4.569789e-001
3.095240e+003,4.571525e-001
3.097169e+003,4.575707e-001
3.099097e+003,4.577462e-001
3.101026e+003,4.577776e-001
3.102954e+003,4.578951e-001
3.104883e+003,4.580190e-001
3.106811e+003,4.583891e-001
3.108740e+003,4.587215e-001
3.110668e+003,4.587953e-001
3.112597e+003,4.589783e-001
3.114525e+003,4.594381e-001
3.116454e+003,4.597875e-001
3.118382e+003,4.597617e-001
3.120311e+003,4.596681e-001
3.122239e+003,4.597045e-001
3.124167e+003,4.597616e-001
3.126096e+003,4.598896e-001
3.128025e+003,4.601626e-001
3.129953e+003,4.603903e-001
3.131882e+003,4.605222e-001
3.133810e+003,4.607771e-001
3.135739e+003,4.610341e-001
3.137667e+003,4.611457e-001
3.139595e+003,4.612141e-001
3.141524e+003,4.611799e-001
3.143453e+003,4.613366e-001
3.145381e+003,4.616528e-001
3.147310e+003,4.617181e-001
3.149238e+003,4.620886e-001
3.151167e+003,4.626853e-001
3.153095e+003,4.628198e-001
3.155023e+003,4.627544e-001
3.156952e+003,4.627249e-001
3.158881e+003,4.629392e-001
3.160809e+003,4.631302e-001
3.162738e+003,4.633719e-001
3.164666e+003,4.635026e-001
3.166594e+003,4.636247e-001
3.168523e+003,4.638822e-001
3.170452e+003,4.641748e-001
3.172380e+003,4.644996e-001
3.174309e+003,4.647801e-001
3.176237e+003,4.649583e-001
3.178166e+003,4.653183e-001
3.180094e+003,4.655357e-001
3.182022e+003,4.656678e-001
3.183951e+003,4.657072e-001
3.185880e+003,4.659608e-001
3.187808e+003,4.662246e-001
3.189737e+003,4.664046e-001
3.191665e+003,4.666092e-001
3.193594e+003,4.669802e-001
3.195522e+003,4.673588e-001
3.197450e+003,4.675967e-001
3.199379e+003,4.676161e-001
3.201308e+003,4.677865e-001
3.203236e+003,4.679638e-001
3.205165e+003,4.682333e-001
3.207093e+003,4.684740e-001
3.209021e+003,4.687212e-001
3.210950e+003,4.690377e-001
3.212878e+003,4.693112e-001
3.214807e+003,4.695688e-001
3.216736e+003,4.697291e-001
3.218664e+003,4.699905e-001
3.220593e+003,4.702790e-001
3.222521e+003,4.703805e-001
3.224449e+003,4.704284e-001
3.226378e+003,4.705470e-001
3.228306e+003,4.709718e-001
3.230235e+003,4.716249e-001
3.232164e+003,4.721355e-001
3.234092e+003,4.721985e-001
3.236021e+003,4.721268e-001
3.237949e+003,4.722599e-001
3.239877e+003,4.725447e-001
3.241806e+003,4.728617e-001
3.243734e+003,4.732535e-001
3.245663e+003,4.735827e-001
3.247592e+003,4.734712e-001
3.249520e+003,4.734437e-001
3.251448e+003,4.738480e-001
3.253377e+003,4.743865e-001
3.255305e+003,4.747868e-001
3.257234e+003,4.747391e-001
3.259162e+003,4.747157e-001
3.261091e+003,4.748986e-001
3.263020e+003,4.750790e-001
3.264948e+003,4.753977e-001
3.266876e+003,4.757954e-001
3.268805e+003,4.762684e-001
3.270733e+003,4.765706e-001
3.272662e+003,4.768569e-001
3.274591e+003,4.770672e-001
3.276519e+003,4.770033e-001
3.278448e+003,4.770694e-001
3.280376e+003,4.771906e-001
3.282304e+003,4.773414e-001
3.284233e+003,4.775908e-001
3.286161e+003,4.777147e-001
3.288090e+003,4.780452e-001
3.290019e+003,4.786718e-001
3.291947e+003,4.789719e-001
3.293875e+003,4.790572e-001
3.295804e+003,4.792820e-001
3.297732e+003,4.794602e-001
3.299661e+003,4.795188e-001
3.301589e+003,4.798180e-001
3.303518e+003,4.800338e-001
3.305447e+003,4.802604e-001
3.307375e+003,4.805964e-001
3.309303e+003,4.807451e-001
3.311232e+003,4.807913e-001
3.313160e+003,4.809910e-001
3.315089e+003,4.812065e-001
3.317017e+003,4.816030e-001
3.318946e+003,4.817978e-001
3.320875e+003,4.819794e-001
3.322803e+003,4.825037e-001
3.324731e+003,4.828379e-001
3.326660e+003,4.829343e-001
3.328588e+003,4.830577e-001
3.330517e+003,4.832955e-001
3.332445e+003,4.833281e-001
3.334374e+003,4.838010e-001
3.336302e+003,4.845361e-001
3.338231e+003,4.848553e-001
3.340159e+003,4.848353e-001
3.342088e+003,4.849682e-001
3.344016e+003,4.851702e-001
3.345945e+003,4.855003e-001
3.347873e+003,4.860714e-001
3.349802e+003,4.864779e-001
3.351730e+003,4.867438e-001
3.353659e+003,4.867243e-001
3.355587e+003,4.869522e-001
3.357516e+003,4.876767e-001
3.359444e+003,4.881403e-001
3.361373e+003,4.882534e-001
3.363302e+003,4.885766e-001
3.365230e+003,4.891331e-001
3.367158e+003,4.894659e-001
3.369087e+003,4.895232e-001
3.371015e+003,4.895551e-001
3.372944e+003,4.896969e-001
3.374872e+003,4.900851e-001
3.376801e+003,4.903792e-001
3.378729e+003,4.906912e-001
3.380658e+003,4.910679e-001
3.382586e+003,4.911829e-001
3.384515e+003,4.913160e-001
3.386443e+003,4.917006e-001
3.388372e+003,4.922789e-001
3.390300e+003,4.927636e-001
3.392229e+003,4.931737e-001
3.394157e+003,4.934686e-001
3.396086e+003,4.935447e-001
3.398014e+003,4.941151e-001
3.399943e+003,4.943375e-001
3.401871e+003,4.943542e-001
3.403800e+003,4.944833e-001
3.405728e+003,4.945458e-001
3.407657e+003,4.947090e-001
3.409585e+003,4.951797e-001
3.411514e+003,4.954717e-001
3.413442e+003,4.957448e-001
3.415371e+003,4.959584e-001
3.417299e+003,4.962464e-001
3.419228e+003,4.966301e-001
3.421156e+003,4.971353e-001
3.423085e+003,4.972626e-001
3.425013e+003,4.972363e-001
3.426942e+003,4.974985e-001
3.428870e+003,4.981282e-001
3.430799e+003,4.984562e-001
3.432727e+003,4.985583e-001
3.434656e+003,4.987366e-001
3.436584e+003,4.990386e-001
3.438513e+003,4.991558e-001
3.440441e+003,4.991757e-001
3.442370e+003,4.994461e-001
3.444298e+003,4.997035e-001
3.446227e+003,4.998428e-001
3.448155e+003,5.001995e-001
3.450084e+003,4.998406e-001
3.452012e+003,4.998678e-001
3.453941e+003,5.002990e-001
3.455869e+003,5.004271e-001
3.457798e+003,5.008054e-001
3.459726e+003,5.014102e-001
3.461655e+003,5.015014e-001
3.463583e+003,5.014468e-001
3.465512e+003,5.016249e-001
3.467440e+003,5.017026e-001
3.469369e+003,5.013283e-001
3.471297e+003,5.014108e-001
3.473226e+003,5.014797e-001
3.475154e+003,5.018321e-001
3.477083e+003,5.022534e-001
3.479011e+003,5.025020e-001
3.480940e+003,5.025938e-001
3.482868e+003,5.026222e-001
3.484797e+003,5.024471e-001
3.486725e+003,5.023611e-001
3.488654e+003,5.024589e-001
3.490582e+003,5.023663e-001
3.492511e+003,5.022140e-001
3.494439e+003,5.024887e-001
3.496368e+003,5.029516e-001
3.498296e+003,5.029160e-001
3.500225e+003,5.030443e-001
3.502153e+003,5.036413e-001
3.504082e+003,5.036381e-001
3.506010e+003,5.029946e-001
3.507939e+003,5.025554e-001
3.509867e+003,5.028533e-001
3.511796e+003,5.029110e-001
3.513724e+003,5.026500e-001
3.515653e+003,5.024002e-001
3.517581e+003,5.025945e-001
3.519510e+003,5.028841e-001
3.521438e+003,5.031201e-001
3.523367e+003,5.040213e-001
3.525295e+003,5.041149e-001
3.527224e+003,5.036474e-001
3.529152e+003,5.036440e-001
3.531081e+003,5.030420e-001
3.533009e+003,5.025146e-001
3.534938e+003,5.024219e-001
3.536866e+003,5.029327e-001
3.538795e+003,5.026910e-001
3.540723e+003,5.026381e-001
3.542652e+003,5.028423e-001
3.544580e+003,5.033193e-001
3.546509e+003,5.034854e-001
3.548437e+003,5.031762e-001
3.550366e+003,5.023463e-001
3.552294e+003,5.026436e-001
3.554223e+003,5.023853e-001
3.556151e+003,5.017203e-001
3.558080e+003,5.016604e-001
3.560008e+003,5.023606e-001
3.561937e+003,5.028050e-001
3.563865e+003,5.027939e-001
3.565794e+003,5.034226e-001
3.567722e+003,5.048003e-001
3.569651e+003,5.031646e-001
3.571579e+003,5.016218e-001
3.573508e+003,5.014020e-001
3.575436e+003,5.016263e-001
3.577365e+003,5.015715e-001
3.579293e+003,5.016761e-001
3.581222e+003,5.020770e-001
3.583150e+003,5.022421e-001
3.585079e+003,5.019670e-001
3.587007e+003,5.034743e-001
3.588936e+003,5.045506e-001
3.590864e+003,5.027581e-001
3.592793e+003,5.019484e-001
3.594721e+003,5.025783e-001
3.596650e+003,5.026451e-001
3.598578e+003,5.023847e-001
3.600507e+003,5.026435e-001
3.602435e+003,5.023654e-001
3.604364e+003,5.012682e-001
3.606292e+003,5.008629e-001
3.608221e+003,5.020130e-001
3.610149e+003,5.017595e-001
3.612078e+003,5.011169e-001
3.614006e+003,5.025715e-001
3.615935e+003,5.019456e-001
3.617863e+003,5.017399e-001
3.619792e+003,5.033646e-001
3.621720e+003,5.026519e-001
3.623649e+003,5.013168e-001
3.625577e+003,5.007838e-001
3.627506e+003,5.001886e-001
3.629434e+003,5.040998e-001
3.631363e+003,5.025386e-001
3.633291e+003,5.004073e-001
3.635220e+003,5.000331e-001
3.637148e+003,4.991810e-001
3.639077e+003,4.993511e-001
3.641005e+003,4.990963e-001
3.642934e+003,4.994977e-001
3.644862e+003,4.991250e-001
3.646791e+003,5.001827e-001
3.648719e+003,5.044788e-001
3.650648e+003,5.047687e-001
3.652576e+003,5.021935e-001
3.654505e+003,4.996783e-001
3.656433e+003,5.008489e-001
3.658362e+003,5.008478e-001
3.660290e+003,4.998163e-001
3.662219e+003,4.993196e-001
3.664147e+003,4.991048e-001
3.666076e+003,4.991609e-001
3.668004e+003,4.993300e-001
3.669933e+003,5.025349e-001
3.671861e+003,5.030487e-001
3.673790e+003,4.998040e-001
3.675718e+003,5.039186e-001
3.677647e+003,5.036874e-001
3.679575e+003,5.016210e-001
3.681504e+003,5.009806e-001
3.683432e+003,5.005478e-001
3.685361e+003,5.008100e-001
3.687289e+003,5.014055e-001
3.689218e+003,5.052003e-001
3.691146e+003,5.046848e-001
3.693075e+003,5.029939e-001
3.695003e+003,5.016149e-001
3.696932e+003,5.016776e-001
3.698860e+003,5.011543e-001
3.700789e+003,5.011284e-001
3.702717e+003,5.026373e-001
3.704646e+003,5.019556e-001
3.706574e+003,5.011324e-001
3.708503e+003,5.016797e-001
3.710431e+003,5.044726e-001
3.712360e+003,5.053608e-001
3.714288e+003,5.031105e-001
3.716217e+003,5.011916e-001
3.718145e+003,5.013458e-001
3.720074e+003,5.025569e-001
3.722002e+003,5.036824e-001
3.723931e+003,5.046669e-001
3.725859e+003,5.054332e-001
3.727788e+003,5.061288e-001
3.729716e+003,5.049546e-001
3.731645e+003,5.059197e-001
3.733573e+003,5.085490e-001
3.735502e+003,5.109399e-001
3.737430e+003,5.099375e-001
3.739359e+003,5.072581e-001
3.741287e+003,5.057496e-001
3.743216e+003,5.042453e-001
3.745144e+003,5.075718e-001
3.747073e+003,5.056781e-001
3.749001e+003,5.048180e-001
3.750930e+003,5.071048e-001
3.752858e+003,5.055532e-001
3.754787e+003,5.028170e-001
3.756715e+003,5.011591e-001
3.758644e+003,5.014686e-001
3.760572e+003,5.016483e-001
3.762500e+003,5.000889e-001
3.764429e+003,4.991396e-001
3.766358e+003,5.007632e-001
3.768286e+003,5.001267e-001
3.770215e+003,5.013068e-001
3.772143e+003,5.007092e-001
3.774072e+003,4.995682e-001
3.776000e+003,4.994773e-001
3.777928e+003,4.996652e-001
3.779857e+003,5.014070e-001
3.781786e+003,5.007643e-001
3.783714e+003,4.999707e-001
3.785643e+003,5.009996e-001
3.787571e+003,5.004622e-001
3.789500e+003,5.002328e-001
3.791428e+003,5.001238e-001
3.793356e+003,5.001922e-001
3.795285e+003,5.007891e-001
3.797214e+003,5.030495e-001
3.799142e+003,5.013413e-001
3.801071e+003,5.013452e-001
3.802999e+003,5.040409e-001
3.804927e+003,5.013456e-001
3.806856e+003,5.019414e-001
3.808785e+003,5.026612e-001
3.810713e+003,5.011452e-001
3.812642e+003,5.012834e-001
3.814570e+003,5.007114e-001
3.816499e+003,5.036328e-001
3.818427e+003,5.030563e-001
3.820355e+003,5.027669e-001
3.822284e+003,5.059807e-001
3.824213e+003,5.033330e-001
3.826141e+003,5.027756e-001
3.828070e+003,5.038463e-001
3.829998e+003,5.027989e-001
3.831927e+003,5.038569e-001
3.833855e+003,5.040835e-001
3.835783e+003,5.043873e-001
3.837712e+003,5.058739e-001
3.839641e+003,5.075610e-001
3.841569e+003,5.058244e-001
3.843498e+003,5.050004e-001
3.845426e+003,5.048575e-001
3.847354e+003,5.036954e-001
3.849283e+003,5.032039e-001
3.851211e+003,5.022699e-001
3.853140e+003,5.073069e-001
3.855069e+003,5.094521e-001
3.856997e+003,5.066378e-001
3.858926e+003,5.048538e-001
3.860854e+003,5.042382e-001
3.862782e+003,5.053203e-001
3.864711e+003,5.063831e-001
3.866639e+003,5.060884e-001
3.868568e+003,5.037468e-001
3.870497e+003,5.083516e-001
3.872425e+003,5.071995e-001
3.874354e+003,5.070647e-001
3.876282e+003,5.063389e-001
3.878210e+003,5.043006e-001
3.880139e+003,5.060266e-001
3.882067e+003,5.078515e-001
3.883996e+003,5.058919e-001
3.885925e+003,5.073206e-001
3.887853e+003,5.069659e-001
3.889781e+003,5.052428e-001
3.891710e+003,5.073979e-001
3.893638e+003,5.076862e-001
3.895567e+003,5.062138e-001
3.897495e+003,5.059341e-001
3.899424e+003,5.078678e-001
3.901353e+003,5.085591e-001
3.903281e+003,5.089390e-001
3.905209e+003,5.096267e-001
3.907138e+003,5.079185e-001
3.909066e+003,5.063890e-001
3.910995e+003,5.061494e-001
3.912924e+003,5.066316e-001
3.914852e+003,5.066360e-001
3.916781e+003,5.077600e-001
3.918709e+003,5.080509e-001
3.920637e+003,5.077886e-001
3.922566e+003,5.072708e-001
3.924494e+003,5.081583e-001
3.926423e+003,5.084406e-001
3.928352e+003,5.076556e-001
3.930280e+003,5.081121e-001
3.932208e+003,5.085691e-001
3.934137e+003,5.088806e-001
3.936065e+003,5.081695e-001
3.937994e+003,5.081782e-001
3.939922e+003,5.080997e-001
3.941851e+003,5.084323e-001
3.943780e+003,5.094595e-001
3.945708e+003,5.087497e-001
3.947636e+003,5.085221e-001
3.949565e+003,5.093622e-001
3.951493e+003,5.094557e-001
3.953422e+003,5.090424e-001
3.955350e+003,5.086529e-001
3.957279e+003,5.085480e-001
3.959208e+003,5.086057e-001
3.961136e+003,5.090914e-001
3.963064e+003,5.093160e-001
3.964993e+003,5.091821e-001
3.966921e+003,5.091910e-001
3.968850e+003,5.091919e-001
3.970778e+003,5.093616e-001
3.972707e+003,5.094805e-001
3.974635e+003,5.097640e-001
3.976564e+003,5.098460e-001
3.978492e+003,5.097443e-001
3.980421e+003,5.097964e-001
3.982349e+003,5.100420e-001
3.984278e+003,5.102566e-001
3.986206e+003,5.104426e-001
3.988135e+003,5.100978e-001
3.990063e+003,5.100231e-001
3.991992e+003,5.101781e-001
3.993920e+003,5.103635e-001
3.995849e+003,5.106776e-001
3.997777e+003,5.105325e-001
3.999706e+003,5.106212e-001
