3.991992e+002,4.809890e-001
4.011277e+002,4.681647e-001
4.030562e+002,4.620757e-001
4.049847e+002,4.565634e-001
4.069132e+002,4.486891e-001
4.088417e+002,4.429830e-001
4.107702e+002,4.399056e-001
4.126987e+002,4.372070e-001
4.146272e+002,4.364008e-001
4.165557e+002,4.370852e-001
4.184842e+002,4.409580e-001
4.204127e+002,4.409162e-001
4.223412e+002,4.394478e-001
4.242697e+002,4.406295e-001
4.261982e+002,4.429432e-001
4.281267e+002,4.440368e-001
4.300552e+002,4.460622e-001
4.319837e+002,4.507707e-001
4.339122e+002,4.572386e-001
4.358407e+002,4.636419e-001
4.377692e+002,4.722241e-001
4.396977e+002,4.820173e-001
4.416262e+002,4.919549e-001
4.435547e+002,5.045589e-001
4.454832e+002,5.164417e-001
4.474117e+002,5.285202e-001
4.493401e+002,5.403401e-001
4.512686e+002,5.522351e-001
4.531971e+002,5.670094e-001
4.551256e+002,5.803439e-001
4.570541e+002,5.942514e-001
4.589826e+002,6.105950e-001
4.609111e+002,6.200051e-001
4.628396e+002,6.293417e-001
4.647681e+002,6.347218e-001
4.666966e+002,6.333624e-001
4.686251e+002,6.258209e-001
4.705536e+002,6.187988e-001
4.724821e+002,6.071962e-001
4.744106e+002,5.921504e-001
4.763391e+002,5.791160e-001
4.782676e+002,5.681199e-001
4.801961e+002,5.586493e-001
4.821246e+002,5.508285e-001
4.840531e+002,5.453151e-001
4.859816e+002,5.410228e-001
4.879101e+002,5.393903e-001
4.898386e+002,5.385261e-001
4.917671e+002,5.375488e-001
4.936956e+002,5.368230e-001
4.956241e+002,5.368748e-001
4.975526e+002,5.371156e-001
4.994811e+002,5.377014e-001
5.014096e+002,5.391895e-001
5.033381e+002,5.429695e-001
5.052666e+002,5.464385e-001
5.071951e+002,5.517029e-001
5.091236e+002,5.578458e-001
5.110521e+002,5.640779e-001
5.129806e+002,5.707641e-001
5.149091e+002,5.785195e-001
5.168376e+002,5.857283e-001
5.187661e+002,5.938196e-001
5.206946e+002,6.030278e-001
5.226231e+002,6.126077e-001
5.245516e+002,6.223447e-001
5.264801e+002,6.348256e-001
5.284086e+002,6.469243e-001
5.303371e+002,6.595603e-001
5.322656e+002,6.734577e-001
5.341941e+002,6.882585e-001
5.361226e+002,7.031704e-001
5.380511e+002,7.189379e-001
5.399796e+002,7.339631e-001
5.419081e+002,7.498628e-001
5.438365e+002,7.642465e-001
5.457651e+002,7.777948e-001
5.476936e+002,7.893372e-001
5.496221e+002,7.987915e-001
5.515506e+002,8.068970e-001
5.534791e+002,8.120152e-001
5.554076e+002,8.129989e-001
5.573361e+002,8.110377e-001
5.592646e+002,8.078942e-001
5.611931e+002,8.037071e-001
5.631216e+002,7.984745e-001
5.650500e+002,7.934984e-001
5.669786e+002,7.881953e-001
5.689070e+002,7.827411e-001
5.708356e+002,7.769550e-001
5.727640e+002,7.692099e-001
5.746926e+002,7.584885e-001
5.766210e+002,7.437254e-001
5.785496e+002,7.269902e-001
5.804780e+002,7.089460e-001
5.824066e+002,6.890034e-001
5.843350e+002,6.690374e-001
5.862635e+002,6.500711e-001
5.881920e+002,6.327285e-001
5.901205e+002,6.166680e-001
5.920490e+002,6.009011e-001
5.939775e+002,5.870822e-001
5.959060e+002,5.749348e-001
5.978345e+002,5.641157e-001
5.997631e+002,5.541797e-001
6.016915e+002,5.450739e-001
6.036201e+002,5.370768e-001
6.055485e+002,5.293339e-001
6.074771e+002,5.218049e-001
6.094055e+002,5.142361e-001
6.113340e+002,5.073631e-001
6.132625e+002,5.012414e-001
6.151910e+002,4.959449e-001
6.171195e+002,4.906306e-001
6.190480e+002,4.854587e-001
6.209765e+002,4.810348e-001
6.229050e+002,4.764724e-001
6.248335e+002,4.714354e-001
6.267620e+002,4.669658e-001
6.286905e+002,4.630882e-001
6.306190e+002,4.590317e-001
6.325475e+002,4.555104e-001
6.344760e+002,4.527886e-001
6.364045e+002,4.507601e-001
6.383330e+002,4.496353e-001
6.402615e+002,4.488707e-001
6.421900e+002,4.488071e-001
6.441185e+002,4.492747e-001
6.460470e+002,4.501801e-001
6.479755e+002,4.510830e-001
6.499040e+002,4.526066e-001
6.518325e+002,4.543156e-001
6.537610e+002,4.566860e-001
6.556895e+002,4.593029e-001
6.576180e+002,4.626356e-001
6.595465e+002,4.659506e-001
6.614750e+002,4.691633e-001
6.634035e+002,4.720154e-001
6.653320e+002,4.741556e-001
6.672605e+002,4.755252e-001
6.691890e+002,4.744687e-001
6.711175e+002,4.722176e-001
6.730460e+002,4.695348e-001
6.749745e+002,4.658575e-001
6.769030e+002,4.614308e-001
6.788315e+002,4.570458e-001
6.807599e+002,4.529988e-001
6.826885e+002,4.492488e-001
6.846169e+002,4.460930e-001
6.865455e+002,4.438668e-001
6.884739e+002,4.420391e-001
6.904025e+002,4.406043e-001
6.923309e+002,4.391354e-001
6.942595e+002,4.373387e-001
6.961880e+002,4.344810e-001
6.981165e+002,4.311507e-001
7.000450e+002,4.274439e-001
7.019734e+002,4.237812e-001
7.039020e+002,4.202456e-001
7.058304e+002,4.173170e-001
7.077590e+002,4.153056e-001
7.096874e+002,4.141399e-001
7.116160e+002,4.130327e-001
7.135444e+002,4.120594e-001
7.154730e+002,4.108067e-001
7.174014e+002,4.090900e-001
7.193300e+002,4.066818e-001
7.212584e+002,4.036734e-001
7.231870e+002,4.002035e-001
7.251154e+002,3.968895e-001
7.270439e+002,3.937140e-001
7.289724e+002,3.908907e-001
7.309009e+002,3.888007e-001
7.328294e+002,3.876604e-001
7.347579e+002,3.869698e-001
7.366864e+002,3.863606e-001
7.386149e+002,3.855940e-001
7.405434e+002,3.844924e-001
7.424719e+002,3.828312e-001
7.444004e+002,3.805748e-001
7.463289e+002,3.776577e-001
7.482574e+002,3.746063e-001
7.501859e+002,3.715464e-001
7.521144e+002,3.687444e-001
7.540429e+002,3.661834e-001
7.559714e+002,3.640766e-001
7.578999e+002,3.620964e-001
7.598284e+002,3.602913e-001
7.617569e+002,3.582537e-001
7.636854e+002,3.558425e-001
7.656139e+002,3.527351e-001
7.675424e+002,3.489823e-001
7.694709e+002,3.447109e-001
7.713994e+002,3.403253e-001
7.733279e+002,3.361574e-001
7.752564e+002,3.326558e-001
7.771849e+002,3.297919e-001
7.791134e+002,3.278218e-001
7.810419e+002,3.263324e-001
7.829704e+002,3.251628e-001
7.848989e+002,3.238450e-001
7.868274e+002,3.222430e-001
7.887559e+002,3.200521e-001
7.906844e+002,3.173303e-001
7.926129e+002,3.138723e-001
7.945414e+002,3.102114e-001
7.964699e+002,3.066713e-001
7.983984e+002,3.036574e-001
8.003269e+002,3.012724e-001
8.022554e+002,2.998018e-001
8.041839e+002,2.989586e-001
8.061124e+002,2.984554e-001
8.080409e+002,2.977191e-001
8.099694e+002,2.967906e-001
8.118979e+002,2.953624e-001
8.138264e+002,2.933154e-001
8.157549e+002,2.904869e-001
8.176833e+002,2.877377e-001
8.196119e+002,2.852403e-001
8.215403e+002,2.833994e-001
8.234689e+002,2.821183e-001
8.253973e+002,2.818702e-001
8.273259e+002,2.822344e-001
8.292543e+002,2.830276e-001
8.311829e+002,2.840016e-001
8.331113e+002,2.848855e-001
8.350399e+002,2.851267e-001
8.369683e+002,2.849101e-001
8.388969e+002,2.841325e-001
8.408253e+002,2.831244e-001
8.427538e+002,2.820813e-001
8.446824e+002,2.815068e-001
8.466108e+002,2.813692e-001
8.485394e+002,2.818332e-001
8.504678e+002,2.825086e-001
8.523964e+002,2.834552e-001
8.543248e+002,2.841924e-001
8.562534e+002,2.846306e-001
8.581818e+002,2.845116e-001
8.601104e+002,2.841203e-001
8.620388e+002,2.834945e-001
8.639673e+002,2.828890e-001
8.658958e+002,2.824615e-001
8.678243e+002,2.828456e-001
8.697528e+002,2.839656e-001
8.716813e+002,2.858181e-001
8.736098e+002,2.881411e-001
8.755383e+002,2.910947e-001
8.774668e+002,2.942468e-001
8.793953e+002,2.975587e-001
8.813238e+002,3.008047e-001
8.832523e+002,3.040702e-001
8.851808e+002,3.074605e-001
8.871093e+002,3.114641e-001
8.890378e+002,3.158379e-001
8.909663e+002,3.206574e-001
8.928948e+002,3.262572e-001
8.948233e+002,3.327029e-001
8.967518e+002,3.396305e-001
8.986803e+002,3.469778e-001
9.006088e+002,3.546143e-001
9.025373e+002,3.626677e-001
9.044658e+002,3.711744e-001
9.063943e+002,3.801417e-001
9.083228e+002,3.894397e-001
9.102513e+002,3.994515e-001
9.121798e+002,4.104211e-001
9.141083e+002,4.223533e-001
9.160368e+002,4.352246e-001
9.179653e+002,4.489141e-001
9.198938e+002,4.638365e-001
9.218223e+002,4.795221e-001
9.237508e+002,4.958437e-001
9.256793e+002,5.127774e-001
9.276078e+002,5.305159e-001
9.295363e+002,5.486917e-001
9.314648e+002,5.675652e-001
9.333932e+002,5.866830e-001
9.353218e+002,6.064959e-001
9.372502e+002,6.267820e-001
9.391788e+002,6.476129e-001
9.411072e+002,6.686605e-001
9.430358e+002,6.907795e-001
9.449643e+002,7.130804e-001
9.468928e+002,7.360002e-001
9.488213e+002,7.591943e-001
9.507498e+002,7.829608e-001
9.526783e+002,8.058867e-001
9.546068e+002,8.288986e-001
9.565353e+002,8.505333e-001
9.584637e+002,8.717520e-001
9.603923e+002,8.911252e-001
9.623207e+002,9.101310e-001
9.642493e+002,9.271218e-001
9.661777e+002,9.435742e-001
9.681063e+002,9.588767e-001
9.700347e+002,9.738528e-001
9.719633e+002,9.867575e-001
9.738917e+002,1.000307e+000
9.758203e+002,1.012692e+000
9.777487e+002,1.025553e+000
9.796772e+002,1.036889e+000
9.816057e+002,1.048657e+000
9.835342e+002,1.058587e+000
9.854627e+002,1.069480e+000
9.873912e+002,1.079120e+000
9.893197e+002,1.089204e+000
9.912482e+002,1.097989e+000
9.931768e+002,1.107340e+000
9.951052e+002,1.114503e+000
9.970338e+002,1.122444e+000
9.989622e+002,1.128607e+000
1.000891e+003,1.135375e+000
1.002819e+003,1.139435e+000
1.004748e+003,1.142764e+000
1.006676e+003,1.141507e+000
1.008605e+003,1.139091e+000
1.010533e+003,1.132722e+000
1.012462e+003,1.124130e+000
1.014390e+003,1.111203e+000
1.016319e+003,1.097592e+000
1.018247e+003,1.081630e+000
1.020176e+003,1.065989e+000
1.022104e+003,1.048792e+000
1.024033e+003,1.033270e+000
1.025961e+003,1.016440e+000
1.027890e+003,1.001021e+000
1.029818e+003,9.857886e-001
1.031747e+003,9.722344e-001
1.033675e+003,9.578833e-001
1.035604e+003,9.449198e-001
1.037532e+003,9.318163e-001
1.039461e+003,9.205369e-001
1.041389e+003,9.092283e-001
1.043318e+003,8.994353e-001
1.045246e+003,8.902713e-001
1.047175e+003,8.828796e-001
1.049103e+003,8.748052e-001
1.051032e+003,8.676579e-001
1.052960e+003,8.599847e-001
1.054889e+003,8.523934e-001
1.056817e+003,8.430965e-001
1.058746e+003,8.334507e-001
1.060674e+003,8.216919e-001
1.062603e+003,8.092744e-001
1.064531e+003,7.947471e-001
1.066460e+003,7.800488e-001
1.068388e+003,7.651199e-001
1.070317e+003,7.508883e-001
1.072245e+003,7.369089e-001
1.074174e+003,7.246171e-001
1.076102e+003,7.129992e-001
1.078031e+003,7.029315e-001
1.079959e+003,6.935018e-001
1.081888e+003,6.854053e-001
1.083816e+003,6.777085e-001
1.085745e+003,6.709446e-001
1.087673e+003,6.642006e-001
1.089602e+003,6.579848e-001
1.091530e+003,6.519378e-001
1.093459e+003,6.464889e-001
1.095387e+003,6.407572e-001
1.097316e+003,6.360223e-001
1.099244e+003,6.313556e-001
1.101173e+003,6.268090e-001
1.103101e+003,6.219708e-001
1.105030e+003,6.172113e-001
1.106958e+003,6.116774e-001
1.108887e+003,6.060448e-001
1.110815e+003,5.997220e-001
1.112744e+003,5.932148e-001
1.114672e+003,5.863357e-001
1.116601e+003,5.794763e-001
1.118529e+003,5.721993e-001
1.120458e+003,5.651360e-001
1.122386e+003,5.578915e-001
1.124315e+003,5.509107e-001
1.126243e+003,5.438957e-001
1.128172e+003,5.368652e-001
1.130100e+003,5.296826e-001
1.132029e+003,5.226588e-001
1.133957e+003,5.154869e-001
1.135886e+003,5.082396e-001
1.137814e+003,5.007402e-001
1.139743e+003,4.937471e-001
1.141671e+003,4.868610e-001
1.143600e+003,4.802827e-001
1.145528e+003,4.740256e-001
1.147457e+003,4.683451e-001
1.149385e+003,4.629870e-001
1.151314e+003,4.579359e-001
1.153242e+003,4.528660e-001
1.155171e+003,4.480583e-001
1.157099e+003,4.432976e-001
1.159028e+003,4.384739e-001
1.160956e+003,4.337176e-001
1.162885e+003,4.290926e-001
1.164813e+003,4.245451e-001
1.166742e+003,4.203441e-001
1.168670e+003,4.162750e-001
1.170599e+003,4.125851e-001
1.172527e+003,4.091771e-001
1.174456e+003,4.060315e-001
1.176384e+003,4.030603e-001
1.178313e+003,4.000925e-001
1.180241e+003,3.969169e-001
1.182170e+003,3.937764e-001
1.184098e+003,3.905057e-001
1.186027e+003,3.872163e-001
1.187955e+003,3.840288e-001
1.189884e+003,3.810326e-001
1.191812e+003,3.783137e-001
1.193741e+003,3.759691e-001
1.195669e+003,3.739005e-001
1.197598e+003,3.719750e-001
1.199526e+003,3.700947e-001
1.201455e+003,3.681909e-001
1.203383e+003,3.661821e-001
1.205312e+003,3.640563e-001
1.207240e+003,3.619127e-001
1.209169e+003,3.597149e-001
1.211097e+003,3.574832e-001
1.213026e+003,3.553740e-001
1.214954e+003,3.534735e-001
1.216883e+003,3.518467e-001
1.218811e+003,3.504795e-001
1.220740e+003,3.492008e-001
1.222668e+003,3.480479e-001
1.224597e+003,3.468331e-001
1.226525e+003,3.455394e-001
1.228453e+003,3.441282e-001
1.230382e+003,3.426883e-001
1.232311e+003,3.411464e-001
1.234239e+003,3.396048e-001
1.236167e+003,3.380610e-001
1.238096e+003,3.366976e-001
1.240025e+003,3.354635e-001
1.241953e+003,3.344201e-001
1.243882e+003,3.335578e-001
1.245810e+003,3.327695e-001
1.247739e+003,3.318989e-001
1.249667e+003,3.309478e-001
1.251596e+003,3.299512e-001
1.253524e+003,3.289599e-001
1.255453e+003,3.278037e-001
1.257381e+003,3.266846e-001
1.259310e+003,3.255882e-001
1.261238e+003,3.246126e-001
1.263167e+003,3.237548e-001
1.265095e+003,3.230172e-001
1.267024e+003,3.223145e-001
1.268952e+003,3.217713e-001
1.270880e+003,3.211818e-001
1.272809e+003,3.205495e-001
1.274738e+003,3.199113e-001
1.276666e+003,3.192397e-001
1.278594e+003,3.184178e-001
1.280523e+003,3.176284e-001
1.282452e+003,3.167759e-001
1.284380e+003,3.160622e-001
1.286308e+003,3.154957e-001
1.288237e+003,3.150000e-001
1.290166e+003,3.144960e-001
1.292094e+003,3.141453e-001
1.294022e+003,3.137579e-001
1.295951e+003,3.133709e-001
1.297880e+003,3.129101e-001
1.299808e+003,3.125019e-001
1.301736e+003,3.120355e-001
1.303665e+003,3.115923e-001
1.305594e+003,3.110282e-001
1.307522e+003,3.105846e-001
1.309450e+003,3.102518e-001
1.311379e+003,3.100835e-001
1.313307e+003,3.097934e-001
1.315236e+003,3.095925e-001
1.317164e+003,3.093142e-001
1.319093e+003,3.089660e-001
1.321021e+003,3.085212e-001
1.322950e+003,3.082419e-001
1.324878e+003,3.079244e-001
1.326807e+003,3.077340e-001
1.328735e+003,3.074765e-001
1.330664e+003,3.072499e-001
1.332592e+003,3.071625e-001
1.334521e+003,3.072233e-001
1.336449e+003,3.071692e-001
1.338378e+003,3.070997e-001
1.340307e+003,3.067090e-001
1.342235e+003,3.065084e-001
1.344163e+003,3.064563e-001
1.346092e+003,3.064906e-001
1.348021e+003,3.064816e-001
1.349949e+003,3.066086e-001
1.351877e+003,3.068036e-001
1.353806e+003,3.071524e-001
1.355734e+003,3.074534e-001
1.357663e+003,3.078321e-001
1.359591e+003,3.081119e-001
1.361520e+003,3.083739e-001
1.363448e+003,3.082522e-001
1.365377e+003,3.082852e-001
1.367305e+003,3.082823e-001
1.369234e+003,3.082239e-001
1.371162e+003,3.082728e-001
1.373091e+003,3.085202e-001
1.375019e+003,3.085008e-001
1.376948e+003,3.086282e-001
1.378876e+003,3.087581e-001
1.380805e+003,3.088289e-001
1.382733e+003,3.087920e-001
1.384662e+003,3.086536e-001
1.386590e+003,3.081523e-001
1.388519e+003,3.074989e-001
1.390447e+003,3.070745e-001
1.392376e+003,3.068238e-001
1.394304e+003,3.065534e-001
1.396233e+003,3.064699e-001
1.398161e+003,3.065898e-001
1.400090e+003,3.067496e-001
1.402018e+003,3.070269e-001
1.403947e+003,3.073324e-001
1.405875e+003,3.072310e-001
1.407804e+003,3.072893e-001
1.409732e+003,3.072065e-001
1.411661e+003,3.069247e-001
1.413589e+003,3.065701e-001
1.415518e+003,3.064436e-001
1.417446e+003,3.063339e-001
1.419375e+003,3.063320e-001
1.421303e+003,3.066083e-001
1.423232e+003,3.072333e-001
1.425160e+003,3.076124e-001
1.427089e+003,3.081135e-001
1.429017e+003,3.084037e-001
1.430946e+003,3.085159e-001
1.432874e+003,3.084227e-001
1.434803e+003,3.084756e-001
1.436731e+003,3.078797e-001
1.438660e+003,3.074975e-001
1.440588e+003,3.074283e-001
1.442517e+003,3.075697e-001
1.444445e+003,3.078830e-001
1.446374e+003,3.085146e-001
1.448302e+003,3.090985e-001
1.450231e+003,3.097750e-001
1.452159e+003,3.102982e-001
1.454088e+003,3.108269e-001
1.456016e+003,3.111243e-001
1.457945e+003,3.105992e-001
1.459873e+003,3.100809e-001
1.461802e+003,3.100645e-001
1.463730e+003,3.099975e-001
1.465659e+003,3.099841e-001
1.467587e+003,3.102404e-001
1.469516e+003,3.109650e-001
1.471444e+003,3.117232e-001
1.473373e+003,3.126011e-001
1.475301e+003,3.130033e-001
1.477230e+003,3.133984e-001
1.479158e+003,3.135454e-001
1.481087e+003,3.135865e-001
1.483015e+003,3.133632e-001
1.484944e+003,3.133648e-001
1.486872e+003,3.132590e-001
1.488801e+003,3.134658e-001
1.490729e+003,3.137220e-001
1.492658e+003,3.144202e-001
1.494586e+003,3.152272e-001
1.496515e+003,3.162958e-001
1.498443e+003,3.169666e-001
1.500372e+003,3.176337e-001
1.502300e+003,3.180521e-001
1.504229e+003,3.186275e-001
1.506157e+003,3.186044e-001
1.508086e+003,3.180807e-001
1.510014e+003,3.179618e-001
1.511943e+003,3.182286e-001
1.513871e+003,3.184667e-001
1.515800e+003,3.192097e-001
1.517728e+003,3.200954e-001
1.519657e+003,3.211035e-001
1.521585e+003,3.218513e-001
1.523514e+003,3.229402e-001
1.525442e+003,3.234529e-001
1.527371e+003,3.238784e-001
1.529299e+003,3.239443e-001
1.531228e+003,3.241721e-001
1.533156e+003,3.239817e-001
1.535085e+003,3.241496e-001
1.537013e+003,3.245440e-001
1.538942e+003,3.253027e-001
1.540870e+003,3.260537e-001
1.542799e+003,3.272299e-001
1.544727e+003,3.279492e-001
1.546656e+003,3.289384e-001
1.548584e+003,3.296030e-001
1.550513e+003,3.301533e-001
1.552441e+003,3.304135e-001
1.554370e+003,3.307160e-001
1.556298e+003,3.307427e-001
1.558227e+003,3.310839e-001
1.560155e+003,3.309293e-001
1.562084e+003,3.319359e-001
1.564012e+003,3.328054e-001
1.565941e+003,3.340891e-001
1.567869e+003,3.351490e-001
1.569798e+003,3.367257e-001
1.571726e+003,3.376566e-001
1.573655e+003,3.386673e-001
1.575583e+003,3.394573e-001
1.577512e+003,3.402322e-001
1.579440e+003,3.406872e-001
1.581369e+003,3.414976e-001
1.583297e+003,3.423606e-001
1.585226e+003,3.437576e-001
1.587154e+003,3.453087e-001
1.589083e+003,3.473916e-001
1.591011e+003,3.495043e-001
1.592940e+003,3.520443e-001
1.594868e+003,3.545070e-001
1.596797e+003,3.572499e-001
1.598725e+003,3.595877e-001
1.600654e+003,3.624086e-001
1.602582e+003,3.652277e-001
1.604511e+003,3.685443e-001
1.606439e+003,3.718006e-001
1.608368e+003,3.762760e-001
1.610296e+003,3.810095e-001
1.612225e+003,3.863252e-001
1.614153e+003,3.909657e-001
1.616082e+003,3.976084e-001
1.618010e+003,4.051341e-001
1.619939e+003,4.101586e-001
1.621867e+003,4.149939e-001
1.623796e+003,4.224712e-001
1.625724e+003,4.272307e-001
1.627653e+003,4.327302e-001
1.629581e+003,4.377933e-001
1.631510e+003,4.423426e-001
1.633438e+003,4.460225e-001
1.635367e+003,4.517406e-001
1.637295e+003,4.560798e-001
1.639224e+003,4.591600e-001
1.641152e+003,4.617496e-001
1.643081e+003,4.646440e-001
1.645009e+003,4.664842e-001
1.646938e+003,4.689705e-001
1.648866e+003,4.691823e-001
1.650795e+003,4.705241e-001
1.652723e+003,4.706035e-001
1.654652e+003,4.696474e-001
1.656580e+003,4.689886e-001
1.658509e+003,4.687540e-001
1.660437e+003,4.679253e-001
1.662366e+003,4.666225e-001
1.664294e+003,4.641085e-001
1.666223e+003,4.632030e-001
1.668151e+003,4.614861e-001
1.670080e+003,4.578947e-001
1.672008e+003,4.547389e-001
1.673937e+003,4.528560e-001
1.675865e+003,4.482958e-001
1.677794e+003,4.457464e-001
1.679722e+003,4.430238e-001
1.681651e+003,4.405754e-001
1.683579e+003,4.376066e-001
1.685508e+003,4.312690e-001
1.687436e+003,4.292159e-001
1.689365e+003,4.262536e-001
1.691293e+003,4.228077e-001
1.693222e+003,4.209663e-001
1.695150e+003,4.184185e-001
1.697079e+003,4.143687e-001
1.699007e+003,4.124160e-001
1.700936e+003,4.074428e-001
1.702864e+003,4.054654e-001
1.704793e+003,4.036260e-001
1.706721e+003,4.001607e-001
1.708650e+003,3.981453e-001
1.710578e+003,3.960988e-001
1.712507e+003,3.945157e-001
1.714435e+003,3.930889e-001
1.716364e+003,3.911555e-001
1.718292e+003,3.877358e-001
1.720221e+003,3.859470e-001
1.722149e+003,3.849208e-001
1.724078e+003,3.833063e-001
1.726006e+003,3.819827e-001
1.727935e+003,3.809630e-001
1.729863e+003,3.797467e-001
1.731792e+003,3.788018e-001
1.733720e+003,3.774726e-001
1.735649e+003,3.754825e-001
1.737577e+003,3.751171e-001
1.739506e+003,3.740436e-001
1.741434e+003,3.728546e-001
1.743363e+003,3.720751e-001
1.745291e+003,3.713868e-001
1.747220e+003,3.708186e-001
1.749148e+003,3.700364e-001
1.751077e+003,3.691188e-001
1.753005e+003,3.682742e-001
1.754934e+003,3.678811e-001
1.756862e+003,3.671420e-001
1.758791e+003,3.664189e-001
1.760719e+003,3.659597e-001
1.762648e+003,3.649003e-001
1.764576e+003,3.644505e-001
1.766505e+003,3.642039e-001
1.768433e+003,3.637155e-001
1.770362e+003,3.635320e-001
1.772290e+003,3.631101e-001
1.774219e+003,3.625787e-001
1.776147e+003,3.622711e-001
1.778076e+003,3.619461e-001
1.780004e+003,3.614823e-001
1.781933e+003,3.607695e-001
1.783861e+003,3.602960e-001
1.785790e+003,3.596379e-001
1.787718e+003,3.592483e-001
1.789647e+003,3.590860e-001
1.791575e+003,3.588038e-001
1.793504e+003,3.582911e-001
1.795432e+003,3.581773e-001
1.797361e+003,3.580659e-001
1.799289e+003,3.578929e-001
1.801218e+003,3.575187e-001
1.803146e+003,3.570858e-001
1.805075e+003,3.566128e-001
1.807003e+003,3.561654e-001
1.808932e+003,3.557036e-001
1.810860e+003,3.551297e-001
1.812789e+003,3.545290e-001
1.814717e+003,3.543237e-001
1.816646e+003,3.541056e-001
1.818574e+003,3.540023e-001
1.820503e+003,3.539461e-001
1.822431e+003,3.539008e-001
1.824360e+003,3.536316e-001
1.826288e+003,3.532618e-001
1.828217e+003,3.530584e-001
1.830145e+003,3.523317e-001
1.832074e+003,3.517158e-001
1.834002e+003,3.513564e-001
1.835931e+003,3.509268e-001
1.837859e+003,3.505763e-001
1.839788e+003,3.503364e-001
1.841716e+003,3.503601e-001
1.843645e+003,3.502602e-001
1.845573e+003,3.501021e-001
1.847502e+003,3.500214e-001
1.849430e+003,3.497686e-001
1.851359e+003,3.493912e-001
1.853287e+003,3.489572e-001
1.855216e+003,3.484660e-001
1.857144e+003,3.480177e-001
1.859073e+003,3.475656e-001
1.861001e+003,3.472456e-001
1.862930e+003,3.470239e-001
1.864858e+003,3.469495e-001
1.866786e+003,3.469258e-001
1.868715e+003,3.467521e-001
1.870644e+003,3.464644e-001
1.872572e+003,3.463697e-001
1.874500e+003,3.461178e-001
1.876429e+003,3.457552e-001
1.878358e+003,3.452560e-001
1.880286e+003,3.447582e-001
1.882215e+003,3.442994e-001
1.884143e+003,3.438756e-001
1.886072e+003,3.435487e-001
1.888000e+003,3.434322e-001
1.889929e+003,3.432085e-001
1.891857e+003,3.431373e-001
1.893786e+003,3.430546e-001
1.895714e+003,3.427942e-001
1.897643e+003,3.425164e-001
1.899571e+003,3.421911e-001
1.901500e+003,3.417598e-001
1.903428e+003,3.413388e-001
1.905357e+003,3.409380e-001
1.907285e+003,3.405558e-001
1.909214e+003,3.400850e-001
1.911142e+003,3.397382e-001
1.913071e+003,3.395983e-001
1.914999e+003,3.394772e-001
1.916927e+003,3.392421e-001
1.918856e+003,3.390060e-001
1.920785e+003,3.389398e-001
1.922713e+003,3.386516e-001
1.924641e+003,3.381923e-001
1.926570e+003,3.378219e-001
1.928499e+003,3.374054e-001
1.930427e+003,3.370361e-001
1.932355e+003,3.366520e-001
1.934284e+003,3.363031e-001
1.936213e+003,3.360428e-001
1.938141e+003,3.358752e-001
1.940069e+003,3.357800e-001
1.941998e+003,3.356213e-001
1.943927e+003,3.353035e-001
1.945855e+003,3.350203e-001
1.947783e+003,3.346171e-001
1.949712e+003,3.343234e-001
1.951641e+003,3.340054e-001
1.953569e+003,3.336870e-001
1.955497e+003,3.332857e-001
1.957426e+003,3.329198e-001
1.959354e+003,3.325560e-001
1.961283e+003,3.322617e-001
1.963211e+003,3.320082e-001
1.965140e+003,3.318286e-001
1.967068e+003,3.315493e-001
1.968997e+003,3.313338e-001
1.970925e+003,3.310891e-001
1.972854e+003,3.308141e-001
1.974782e+003,3.304740e-001
1.976711e+003,3.301276e-001
1.978639e+003,3.297136e-001
1.980568e+003,3.293227e-001
1.982496e+003,3.289542e-001
1.984425e+003,3.286434e-001
1.986354e+003,3.282961e-001
1.988282e+003,3.279514e-001
1.990210e+003,3.276734e-001
1.992139e+003,3.273949e-001
1.994068e+003,3.271124e-001
1.995996e+003,3.269686e-001
1.997924e+003,3.267073e-001
1.999853e+003,3.264210e-001
2.001781e+003,3.260935e-001
2.003710e+003,3.257110e-001
2.005638e+003,3.252463e-001
2.007567e+003,3.248728e-001
2.009495e+003,3.244588e-001
2.011424e+003,3.240758e-001
2.013352e+003,3.237498e-001
2.015281e+003,3.234880e-001
2.017209e+003,3.231943e-001
2.019138e+003,3.230091e-001
2.021066e+003,3.228023e-001
2.022995e+003,3.225786e-001
2.024923e+003,3.222806e-001
2.026852e+003,3.219567e-001
2.028780e+003,3.215708e-001
2.030709e+003,3.211577e-001
2.032637e+003,3.206504e-001
2.034566e+003,3.201605e-001
2.036494e+003,3.197694e-001
2.038423e+003,3.194750e-001
2.040351e+003,3.191918e-001
2.042280e+003,3.190060e-001
2.044208e+003,3.188158e-001
2.046137e+003,3.186729e-001
2.048065e+003,3.185446e-001
2.049994e+003,3.182803e-001
2.051922e+003,3.178743e-001
2.053851e+003,3.174440e-001
2.055779e+003,3.169468e-001
2.057708e+003,3.164584e-001
2.059636e+003,3.159324e-001
2.061565e+003,3.155566e-001
2.063493e+003,3.152955e-001
2.065422e+003,3.151128e-001
2.067350e+003,3.150058e-001
2.069279e+003,3.149419e-001
2.071207e+003,3.147755e-001
2.073136e+003,3.145314e-001
2.075064e+003,3.142094e-001
2.076993e+003,3.138632e-001
2.078921e+003,3.132932e-001
2.080850e+003,3.127246e-001
2.082778e+003,3.122290e-001
2.084707e+003,3.117912e-001
2.086635e+003,3.113558e-001
2.088564e+003,3.110992e-001
2.090492e+003,3.109033e-001
2.092421e+003,3.108043e-001
2.094349e+003,3.107116e-001
2.096278e+003,3.105436e-001
2.098206e+003,3.102337e-001
2.100135e+003,3.098707e-001
2.102063e+003,3.093601e-001
2.103992e+003,3.087690e-001
2.105920e+003,3.081207e-001
2.107849e+003,3.075715e-001
2.109777e+003,3.071218e-001
2.111706e+003,3.068138e-001
2.113634e+003,3.065801e-001
2.115563e+003,3.063859e-001
2.117491e+003,3.062212e-001
2.119420e+003,3.061247e-001
2.121348e+003,3.059027e-001
2.123277e+003,3.055604e-001
2.125205e+003,3.050515e-001
2.127134e+003,3.044794e-001
2.129062e+003,3.038834e-001
2.130991e+003,3.033219e-001
2.132919e+003,3.027828e-001
2.134848e+003,3.023793e-001
2.136776e+003,3.020351e-001
2.138705e+003,3.018418e-001
2.140633e+003,3.016764e-001
2.142562e+003,3.015651e-001
2.144490e+003,3.013439e-001
2.146419e+003,3.010426e-001
2.148347e+003,3.005957e-001
2.150276e+003,3.000976e-001
2.152204e+003,2.994730e-001
2.154133e+003,2.988415e-001
2.156061e+003,2.982290e-001
2.157990e+003,2.977343e-001
2.159918e+003,2.973978e-001
2.161847e+003,2.972011e-001
2.163775e+003,2.970673e-001
2.165704e+003,2.969559e-001
2.167632e+003,2.967800e-001
2.169561e+003,2.965586e-001
2.171489e+003,2.961260e-001
2.173418e+003,2.955494e-001
2.175346e+003,2.949175e-001
2.177275e+003,2.942884e-001
2.179203e+003,2.936838e-001
2.181132e+003,2.931950e-001
2.183060e+003,2.928011e-001
2.184989e+003,2.925554e-001
2.186917e+003,2.923624e-001
2.188846e+003,2.922477e-001
2.190774e+003,2.920628e-001
2.192703e+003,2.918241e-001
2.194631e+003,2.914833e-001
2.196560e+003,2.910418e-001
2.198488e+003,2.905014e-001
2.200417e+003,2.899106e-001
2.202345e+003,2.892717e-001
2.204274e+003,2.887711e-001
2.206202e+003,2.883671e-001
2.208131e+003,2.880773e-001
2.210059e+003,2.878341e-001
2.211988e+003,2.876527e-001
2.213916e+003,2.875062e-001
2.215845e+003,2.873397e-001
2.217773e+003,2.870427e-001
2.219702e+003,2.866359e-001
2.221630e+003,2.861435e-001
2.223559e+003,2.856642e-001
2.225487e+003,2.851310e-001
2.227416e+003,2.845923e-001
2.229344e+003,2.841301e-001
2.231273e+003,2.838290e-001
2.233201e+003,2.835581e-001
2.235130e+003,2.833823e-001
2.237058e+003,2.832484e-001
2.238987e+003,2.830913e-001
2.240915e+003,2.828147e-001
2.242844e+003,2.825209e-001
2.244772e+003,2.821009e-001
2.246701e+003,2.815687e-001
2.248629e+003,2.810625e-001
2.250558e+003,2.806428e-001
2.252486e+003,2.802017e-001
2.254415e+003,2.798987e-001
2.256343e+003,2.796541e-001
2.258272e+003,2.794825e-001
2.260200e+003,2.793150e-001
2.262129e+003,2.791825e-001
2.264057e+003,2.790186e-001
2.265986e+003,2.788081e-001
2.267914e+003,2.783989e-001
2.269843e+003,2.779806e-001
2.271771e+003,2.775214e-001
2.273700e+003,2.770962e-001
2.275628e+003,2.766821e-001
2.277557e+003,2.763608e-001
2.279485e+003,2.761351e-001
2.281414e+003,2.759686e-001
2.283342e+003,2.757719e-001
2.285271e+003,2.756847e-001
2.287199e+003,2.755788e-001
2.289128e+003,2.754026e-001
2.291056e+003,2.750997e-001
2.292985e+003,2.748172e-001
2.294913e+003,2.745313e-001
2.296842e+003,2.742418e-001
2.298770e+003,2.739563e-001
2.300699e+003,2.737068e-001
2.302627e+003,2.735007e-001
2.304556e+003,2.734425e-001
2.306484e+003,2.734430e-001
2.308413e+003,2.734893e-001
2.310341e+003,2.734825e-001
2.312270e+003,2.734651e-001
2.314198e+003,2.732566e-001
2.316127e+003,2.729714e-001
2.318055e+003,2.728168e-001
2.319984e+003,2.727941e-001
2.321912e+003,2.725859e-001
2.323841e+003,2.725077e-001
2.325769e+003,2.725489e-001
2.327698e+003,2.725942e-001
2.329626e+003,2.725649e-001
2.331555e+003,2.726519e-001
2.333483e+003,2.725062e-001
2.335412e+003,2.725987e-001
2.337340e+003,2.724963e-001
2.339269e+003,2.722714e-001
2.341197e+003,2.720558e-001
2.343126e+003,2.717677e-001
2.345054e+003,2.710359e-001
2.346983e+003,2.704456e-001
2.348911e+003,2.704463e-001
2.350840e+003,2.708624e-001
2.352768e+003,2.710351e-001
2.354697e+003,2.711251e-001
2.356625e+003,2.712634e-001
2.358554e+003,2.712070e-001
2.360482e+003,2.710557e-001
2.362411e+003,2.711488e-001
2.364339e+003,2.704039e-001
2.366268e+003,2.697409e-001
2.368196e+003,2.695490e-001
2.370125e+003,2.693386e-001
2.372053e+003,2.687711e-001
2.373982e+003,2.684438e-001
2.375910e+003,2.681360e-001
2.377839e+003,2.678538e-001
2.379767e+003,2.674851e-001
2.381696e+003,2.670797e-001
2.383624e+003,2.667482e-001
2.385553e+003,2.665049e-001
2.387481e+003,2.662780e-001
2.389410e+003,2.660820e-001
2.391338e+003,2.659468e-001
2.393267e+003,2.659872e-001
2.395195e+003,2.660306e-001
2.397124e+003,2.660072e-001
2.399052e+003,2.660123e-001
2.400981e+003,2.661106e-001
2.402909e+003,2.661555e-001
2.404838e+003,2.661272e-001
2.406766e+003,2.659941e-001
2.408695e+003,2.658546e-001
2.410623e+003,2.657571e-001
2.412552e+003,2.657313e-001
2.414480e+003,2.656890e-001
2.416409e+003,2.657005e-001
2.418337e+003,2.657391e-001
2.420266e+003,2.658467e-001
2.422194e+003,2.659783e-001
2.424123e+003,2.661045e-001
2.426051e+003,2.661717e-001
2.427980e+003,2.661731e-001
2.429908e+003,2.661310e-001
2.431837e+003,2.660468e-001
2.433765e+003,2.659287e-001
2.435694e+003,2.659093e-001
2.437622e+003,2.658922e-001
2.439551e+003,2.659438e-001
2.441479e+003,2.660647e-001
2.443408e+003,2.662069e-001
2.445336e+003,2.663621e-001
2.447265e+003,2.665030e-001
2.449193e+003,2.665820e-001
2.451122e+003,2.666681e-001
2.453050e+003,2.666563e-001
2.454979e+003,2.665753e-001
2.456907e+003,2.665209e-001
2.458836e+003,2.665109e-001
2.460764e+003,2.665550e-001
2.462693e+003,2.666810e-001
2.464621e+003,2.667954e-001
2.466550e+003,2.669673e-001
2.468478e+003,2.671410e-001
2.470406e+003,2.674003e-001
2.472335e+003,2.675650e-001
2.474264e+003,2.676591e-001
2.476192e+003,2.677324e-001
2.478121e+003,2.677472e-001
2.480049e+003,2.677213e-001
2.481978e+003,2.677644e-001
2.483906e+003,2.678486e-001
2.485834e+003,2.680158e-001
2.487763e+003,2.682311e-001
2.489692e+003,2.684108e-001
2.491620e+003,2.686216e-001
2.493549e+003,2.688752e-001
2.495477e+003,2.690892e-001
2.497406e+003,2.692386e-001
2.499334e+003,2.693045e-001
2.501262e+003,2.694564e-001
2.503191e+003,2.695608e-001
2.505120e+003,2.696206e-001
2.507048e+003,2.697501e-001
2.508977e+003,2.698874e-001
2.510905e+003,2.700200e-001
2.512833e+003,2.703045e-001
2.514762e+003,2.705981e-001
2.516690e+003,2.709042e-001
2.518619e+003,2.711608e-001
2.520548e+003,2.713804e-001
2.522476e+003,2.715506e-001
2.524405e+003,2.716891e-001
2.526333e+003,2.717737e-001
2.528261e+003,2.718800e-001
2.530190e+003,2.720615e-001
2.532119e+003,2.722689e-001
2.534047e+003,2.724626e-001
2.535976e+003,2.727396e-001
2.537904e+003,2.731122e-001
2.539833e+003,2.734175e-001
2.541761e+003,2.736558e-001
2.543689e+003,2.739637e-001
2.545618e+003,2.741725e-001
2.547547e+003,2.743485e-001
2.549475e+003,2.745423e-001
2.551404e+003,2.747647e-001
2.553332e+003,2.749437e-001
2.555260e+003,2.751518e-001
2.557189e+003,2.754049e-001
2.559117e+003,2.757267e-001
2.561046e+003,2.760653e-001
2.562975e+003,2.764062e-001
2.564903e+003,2.766760e-001
2.566832e+003,2.769685e-001
2.568760e+003,2.772513e-001
2.570688e+003,2.775904e-001
2.572617e+003,2.778750e-001
2.574545e+003,2.781254e-001
2.576474e+003,2.783595e-001
2.578403e+003,2.785915e-001
2.580331e+003,2.788600e-001
2.582260e+003,2.791978e-001
2.584188e+003,2.794692e-001
2.586116e+003,2.798399e-001
2.588045e+003,2.802485e-001
2.589973e+003,2.805953e-001
2.591902e+003,2.809198e-001
2.593831e+003,2.813005e-001
2.595759e+003,2.816355e-001
2.597688e+003,2.819468e-001
2.599616e+003,2.822368e-001
2.601544e+003,2.825439e-001
2.603473e+003,2.828055e-001
2.605401e+003,2.831747e-001
2.607330e+003,2.835314e-001
2.609259e+003,2.839245e-001
2.611187e+003,2.843873e-001
2.613115e+003,2.848157e-001
2.615044e+003,2.851747e-001
2.616972e+003,2.855413e-001
2.618901e+003,2.859044e-001
2.620830e+003,2.862541e-001
2.622758e+003,2.865940e-001
2.624687e+003,2.870225e-001
2.626615e+003,2.873753e-001
2.628543e+003,2.877053e-001
2.630472e+003,2.880634e-001
2.632400e+003,2.885103e-001
2.634329e+003,2.889130e-001
2.636258e+003,2.893447e-001
2.638186e+003,2.897497e-001
2.640115e+003,2.901503e-001
2.642043e+003,2.905388e-001
2.643971e+003,2.909556e-001
2.645900e+003,2.913988e-001
2.647828e+003,2.918179e-001
2.649757e+003,2.921518e-001
2.651686e+003,2.925776e-001
2.653614e+003,2.930037e-001
2.655542e+003,2.933850e-001
2.657471e+003,2.937520e-001
2.659399e+003,2.942170e-001
2.661328e+003,2.946862e-001
2.663256e+003,2.951185e-001
2.665185e+003,2.955572e-001
2.667114e+003,2.960233e-001
2.669042e+003,2.964517e-001
2.670970e+003,2.969810e-001
2.672899e+003,2.974519e-001
2.674827e+003,2.978620e-001
2.676756e+003,2.983096e-001
2.678684e+003,2.987669e-001
2.680613e+003,2.991181e-001
2.682542e+003,2.994161e-001
2.684470e+003,2.998050e-001
2.686398e+003,3.003525e-001
2.688327e+003,3.008406e-001
2.690255e+003,3.012767e-001
2.692184e+003,3.017852e-001
2.694112e+003,3.023610e-001
2.696041e+003,3.028730e-001
2.697969e+003,3.033309e-001
2.699898e+003,3.037574e-001
2.701826e+003,3.040800e-001
2.703755e+003,3.044451e-001
2.705683e+003,3.048838e-001
2.707612e+003,3.053539e-001
2.709540e+003,3.058944e-001
2.711469e+003,3.064370e-001
2.713397e+003,3.069862e-001
2.715326e+003,3.075489e-001
2.717254e+003,3.081055e-001
2.719183e+003,3.085951e-001
2.721111e+003,3.091429e-001
2.723040e+003,3.096354e-001
2.724969e+003,3.100523e-001
2.726897e+003,3.102917e-001
2.728825e+003,3.106239e-001
2.730754e+003,3.111039e-001
2.732682e+003,3.116458e-001
2.734611e+003,3.122748e-001
2.736539e+003,3.128794e-001
2.738468e+003,3.134291e-001
2.740396e+003,3.139844e-001
2.742325e+003,3.145247e-001
2.744253e+003,3.150579e-001
2.746182e+003,3.155567e-001
2.748110e+003,3.159966e-001
2.750039e+003,3.163581e-001
2.751967e+003,3.167356e-001
2.753896e+003,3.171354e-001
2.755824e+003,3.175824e-001
2.757753e+003,3.181738e-001
2.759681e+003,3.187569e-001
2.761610e+003,3.193567e-001
2.763538e+003,3.200694e-001
2.765467e+003,3.207048e-001
2.767395e+003,3.212524e-001
2.769324e+003,3.216994e-001
2.771252e+003,3.221357e-001
2.773181e+003,3.225157e-001
2.775109e+003,3.228983e-001
2.777038e+003,3.233041e-001
2.778966e+003,3.237541e-001
2.780895e+003,3.243259e-001
2.782823e+003,3.249599e-001
2.784752e+003,3.256411e-001
2.786680e+003,3.265046e-001
2.788609e+003,3.271753e-001
2.790537e+003,3.276572e-001
2.792466e+003,3.281879e-001
2.794394e+003,3.286952e-001
2.796323e+003,3.290781e-001
2.798251e+003,3.294075e-001
2.800180e+003,3.297058e-001
2.802108e+003,3.301958e-001
2.804037e+003,3.308081e-001
2.805965e+003,3.314170e-001
2.807894e+003,3.321249e-001
2.809822e+003,3.328659e-001
2.811751e+003,3.334960e-001
2.813679e+003,3.340802e-001
2.815608e+003,3.346071e-001
2.817536e+003,3.350742e-001
2.819465e+003,3.354842e-001
2.821393e+003,3.359258e-001
2.823322e+003,3.362966e-001
2.825250e+003,3.366509e-001
2.827179e+003,3.371677e-001
2.829107e+003,3.378614e-001
2.831036e+003,3.386544e-001
2.832964e+003,3.394952e-001
2.834893e+003,3.403075e-001
2.836821e+003,3.410913e-001
2.838750e+003,3.417421e-001
2.840678e+003,3.421412e-001
2.842607e+003,3.424662e-001
2.844535e+003,3.429696e-001
2.846464e+003,3.435641e-001
2.848392e+003,3.440805e-001
2.850321e+003,3.446099e-001
2.852249e+003,3.453235e-001
2.854178e+003,3.460250e-001
2.856106e+003,3.467410e-001
2.858035e+003,3.475456e-001
2.859963e+003,3.482378e-001
2.861892e+003,3.487453e-001
2.863820e+003,3.491911e-001
2.865749e+003,3.495369e-001
2.867677e+003,3.498510e-001
2.869606e+003,3.502763e-001
2.871534e+003,3.508085e-001
2.873463e+003,3.513164e-001
2.875391e+003,3.517736e-001
2.877320e+003,3.523443e-001
2.879248e+003,3.530229e-001
2.881177e+003,3.538368e-001
2.883105e+003,3.546612e-001
2.885034e+003,3.553110e-001
2.886962e+003,3.559385e-001
2.888891e+003,3.564551e-001
2.890819e+003,3.568762e-001
2.892748e+003,3.573040e-001
2.894676e+003,3.578239e-001
2.896605e+003,3.582563e-001
2.898533e+003,3.587759e-001
2.900462e+003,3.595128e-001
2.902390e+003,3.603388e-001
2.904319e+003,3.611973e-001
2.906247e+003,3.621062e-001
2.908176e+003,3.629398e-001
2.910104e+003,3.636786e-001
2.912033e+003,3.643991e-001
2.913961e+003,3.649993e-001
2.915890e+003,3.654843e-001
2.917818e+003,3.660218e-001
2.919747e+003,3.665338e-001
2.921675e+003,3.670655e-001
2.923604e+003,3.677350e-001
2.925532e+003,3.685066e-001
2.927461e+003,3.693729e-001
2.929389e+003,3.701765e-001
2.931318e+003,3.707802e-001
2.933246e+003,3.713677e-001
2.935175e+003,3.718470e-001
2.937103e+003,3.722552e-001
2.939032e+003,3.727022e-001
2.940960e+003,3.731346e-001
2.942889e+003,3.736085e-001
2.944817e+003,3.741016e-001
2.946746e+003,3.747202e-001
2.948674e+003,3.754925e-001
2.950603e+003,3.763250e-001
2.952531e+003,3.772091e-001
2.954460e+003,3.779696e-001
2.956388e+003,3.786974e-001
2.958317e+003,3.793845e-001
2.960245e+003,3.800122e-001
2.962174e+003,3.805555e-001
2.964102e+003,3.810208e-001
2.966031e+003,3.814557e-001
2.967959e+003,3.819807e-001
2.969888e+003,3.826605e-001
2.971816e+003,3.835346e-001
2.973745e+003,3.845316e-001
2.975673e+003,3.854579e-001
2.977602e+003,3.863406e-001
2.979530e+003,3.872108e-001
2.981459e+003,3.879748e-001
2.983387e+003,3.886671e-001
2.985316e+003,3.892885e-001
2.987244e+003,3.899153e-001
2.989173e+003,3.905780e-001
2.991101e+003,3.913603e-001
2.993030e+003,3.921299e-001
2.994958e+003,3.929967e-001
2.996887e+003,3.939482e-001
2.998815e+003,3.949198e-001
3.000744e+003,3.959672e-001
3.002672e+003,3.969983e-001
3.004601e+003,3.978533e-001
3.006529e+003,3.986822e-001
3.008458e+003,3.995919e-001
3.010386e+003,4.004804e-001
3.012315e+003,4.011914e-001
3.014243e+003,4.019570e-001
3.016172e+003,4.028038e-001
3.018100e+003,4.037950e-001
3.020029e+003,4.048315e-001
3.021957e+003,4.059489e-001
3.023886e+003,4.070502e-001
3.025814e+003,4.081260e-001
3.027743e+003,4.092953e-001
3.029671e+003,4.104188e-001
3.031600e+003,4.114508e-001
3.033528e+003,4.123992e-001
3.035457e+003,4.132112e-001
3.037385e+003,4.140845e-001
3.039314e+003,4.151199e-001
3.041242e+003,4.162527e-001
3.043171e+003,4.173153e-001
3.045099e+003,4.185899e-001
3.047028e+003,4.199331e-001
3.048956e+003,4.212490e-001
3.050885e+003,4.224503e-001
3.052813e+003,4.235627e-001
3.054742e+003,4.246956e-001
3.056670e+003,4.258076e-001
3.058599e+003,4.268350e-001
3.060527e+003,4.279236e-001
3.062456e+003,4.291345e-001
3.064384e+003,4.303920e-001
3.066313e+003,4.317167e-001
3.068241e+003,4.330306e-001
3.070170e+003,4.343659e-001
3.072098e+003,4.357781e-001
3.074027e+003,4.371418e-001
3.075955e+003,4.384531e-001
3.077884e+003,4.398507e-001
3.079812e+003,4.411613e-001
3.081741e+003,4.424278e-001
3.083669e+003,4.436939e-001
3.085598e+003,4.450583e-001
3.087526e+003,4.464416e-001
3.089455e+003,4.478185e-001
3.091383e+003,4.493273e-001
3.093312e+003,4.509172e-001
3.095240e+003,4.524326e-001
3.097169e+003,4.538362e-001
3.099097e+003,4.553198e-001
3.101026e+003,4.568105e-001
3.102954e+003,4.583489e-001
3.104883e+003,4.599857e-001
3.106811e+003,4.614833e-001
3.108740e+003,4.629243e-001
3.110668e+003,4.644518e-001
3.112597e+003,4.660008e-001
3.114525e+003,4.675319e-001
3.116454e+003,4.691358e-001
3.118382e+003,4.708846e-001
3.120311e+003,4.725253e-001
3.122239e+003,4.741973e-001
3.124167e+003,4.758210e-001
3.126096e+003,4.774851e-001
3.128025e+003,4.792213e-001
3.129953e+003,4.808642e-001
3.131882e+003,4.823441e-001
3.133810e+003,4.840114e-001
3.135739e+003,4.858078e-001
3.137667e+003,4.875655e-001
3.139595e+003,4.892250e-001
3.141524e+003,4.909637e-001
3.143453e+003,4.927821e-001
3.145381e+003,4.945446e-001
3.147310e+003,4.961891e-001
3.149238e+003,4.980059e-001
3.151167e+003,4.999059e-001
3.153095e+003,5.016636e-001
3.155023e+003,5.033520e-001
3.156952e+003,5.052654e-001
3.158881e+003,5.071229e-001
3.160809e+003,5.088722e-001
3.162738e+003,5.107254e-001
3.164666e+003,5.125716e-001
3.166594e+003,5.142943e-001
3.168523e+003,5.160318e-001
3.170452e+003,5.178334e-001
3.172380e+003,5.195813e-001
3.174309e+003,5.213762e-001
3.176237e+003,5.233861e-001
3.178166e+003,5.252662e-001
3.180094e+003,5.271226e-001
3.182022e+003,5.290758e-001
3.183951e+003,5.310031e-001
3.185880e+003,5.328369e-001
3.187808e+003,5.346717e-001
3.189737e+003,5.364724e-001
3.191665e+003,5.381848e-001
3.193594e+003,5.398908e-001
3.195522e+003,5.417103e-001
3.197450e+003,5.436082e-001
3.199379e+003,5.454258e-001
3.201308e+003,5.470007e-001
3.203236e+003,5.487067e-001
3.205165e+003,5.506399e-001
3.207093e+003,5.526841e-001
3.209021e+003,5.545009e-001
3.210950e+003,5.561850e-001
3.212878e+003,5.578278e-001
3.214807e+003,5.594503e-001
3.216736e+003,5.609380e-001
3.218664e+003,5.624453e-001
3.220593e+003,5.640205e-001
3.222521e+003,5.656338e-001
3.224449e+003,5.672336e-001
3.226378e+003,5.688618e-001
3.228306e+003,5.705649e-001
3.230235e+003,5.722855e-001
3.232164e+003,5.735877e-001
3.234092e+003,5.749019e-001
3.236021e+003,5.763422e-001
3.237949e+003,5.775614e-001
3.239877e+003,5.788341e-001
3.241806e+003,5.801672e-001
3.243734e+003,5.814567e-001
3.245663e+003,5.826011e-001
3.247592e+003,5.836602e-001
3.249520e+003,5.847230e-001
3.251448e+003,5.860419e-001
3.253377e+003,5.874594e-001
3.255305e+003,5.885485e-001
3.257234e+003,5.895569e-001
3.259162e+003,5.905907e-001
3.261091e+003,5.914845e-001
3.263020e+003,5.923558e-001
3.264948e+003,5.933044e-001
3.266876e+003,5.943381e-001
3.268805e+003,5.952787e-001
3.270733e+003,5.960729e-001
3.272662e+003,5.970058e-001
3.274591e+003,5.980021e-001
3.276519e+003,5.991081e-001
3.278448e+003,6.000230e-001
3.280376e+003,6.008623e-001
3.282304e+003,6.016807e-001
3.284233e+003,6.024508e-001
3.286161e+003,6.032681e-001
3.288090e+003,6.041326e-001
3.290019e+003,6.048220e-001
3.291947e+003,6.056485e-001
3.293875e+003,6.065744e-001
3.295804e+003,6.075258e-001
3.297732e+003,6.083739e-001
3.299661e+003,6.094099e-001
3.301589e+003,6.106467e-001
3.303518e+003,6.118315e-001
3.305447e+003,6.127293e-001
3.307375e+003,6.136689e-001
3.309303e+003,6.145822e-001
3.311232e+003,6.155732e-001
3.313160e+003,6.165360e-001
3.315089e+003,6.174679e-001
3.317017e+003,6.183632e-001
3.318946e+003,6.194571e-001
3.320875e+003,6.206635e-001
3.322803e+003,6.220605e-001
3.324731e+003,6.234586e-001
3.326660e+003,6.245727e-001
3.328588e+003,6.256189e-001
3.330517e+003,6.268349e-001
3.332445e+003,6.280208e-001
3.334374e+003,6.295668e-001
3.336302e+003,6.308336e-001
3.338231e+003,6.317330e-001
3.340159e+003,6.327928e-001
3.342088e+003,6.340773e-001
3.344016e+003,6.353337e-001
3.345945e+003,6.366658e-001
3.347873e+003,6.381063e-001
3.349802e+003,6.394702e-001
3.351730e+003,6.406320e-001
3.353659e+003,6.419012e-001
3.355587e+003,6.431483e-001
3.357516e+003,6.443648e-001
3.359444e+003,6.453554e-001
3.361373e+003,6.464115e-001
3.363302e+003,6.476206e-001
3.365230e+003,6.488737e-001
3.367158e+003,6.498241e-001
3.369087e+003,6.508611e-001
3.371015e+003,6.520440e-001
3.372944e+003,6.531717e-001
3.374872e+003,6.541797e-001
3.376801e+003,6.553454e-001
3.378729e+003,6.562535e-001
3.380658e+003,6.571282e-001
3.382586e+003,6.581305e-001
3.384515e+003,6.590458e-001
3.386443e+003,6.597250e-001
3.388372e+003,6.602933e-001
3.390300e+003,6.608804e-001
3.392229e+003,6.616662e-001
3.394157e+003,6.622858e-001
3.396086e+003,6.629127e-001
3.398014e+003,6.631339e-001
3.399943e+003,6.635423e-001
3.401871e+003,6.643971e-001
3.403800e+003,6.652619e-001
3.405728e+003,6.656955e-001
3.407657e+003,6.659267e-001
3.409585e+003,6.661584e-001
3.411514e+003,6.665209e-001
3.413442e+003,6.665980e-001
3.415371e+003,6.671307e-001
3.417299e+003,6.675400e-001
3.419228e+003,6.677867e-001
3.421156e+003,6.676939e-001
3.423085e+003,6.676751e-001
3.425013e+003,6.679536e-001
3.426942e+003,6.680852e-001
3.428870e+003,6.675846e-001
3.430799e+003,6.673848e-001
3.432727e+003,6.673087e-001
3.434656e+003,6.672648e-001
3.436584e+003,6.670659e-001
3.438513e+003,6.671853e-001
3.440441e+003,6.671332e-001
3.442370e+003,6.670716e-001
3.444298e+003,6.666858e-001
3.446227e+003,6.663601e-001
3.448155e+003,6.658412e-001
3.450084e+003,6.655927e-001
3.452012e+003,6.649725e-001
3.453941e+003,6.644898e-001
3.455869e+003,6.639318e-001
3.457798e+003,6.632975e-001
3.459726e+003,6.625245e-001
3.461655e+003,6.622515e-001
3.463583e+003,6.613821e-001
3.465512e+003,6.605619e-001
3.467440e+003,6.595026e-001
3.469369e+003,6.587210e-001
3.471297e+003,6.583077e-001
3.473226e+003,6.581529e-001
3.475154e+003,6.572778e-001
3.477083e+003,6.562991e-001
3.479011e+003,6.553677e-001
3.480940e+003,6.549884e-001
3.482868e+003,6.541853e-001
3.484797e+003,6.531268e-001
3.486725e+003,6.518180e-001
3.488654e+003,6.510116e-001
3.490582e+003,6.500667e-001
3.492511e+003,6.489612e-001
3.494439e+003,6.475825e-001
3.496368e+003,6.463293e-001
3.498296e+003,6.453841e-001
3.500225e+003,6.448462e-001
3.502153e+003,6.436550e-001
3.504082e+003,6.427008e-001
3.506010e+003,6.418791e-001
3.507939e+003,6.413976e-001
3.509867e+003,6.399202e-001
3.511796e+003,6.383694e-001
3.513724e+003,6.371240e-001
3.515653e+003,6.359476e-001
3.517581e+003,6.349757e-001
3.519510e+003,6.339784e-001
3.521438e+003,6.324382e-001
3.523367e+003,6.310353e-001
3.525295e+003,6.302308e-001
3.527224e+003,6.296003e-001
3.529152e+003,6.279869e-001
3.531081e+003,6.265681e-001
3.533009e+003,6.249022e-001
3.534938e+003,6.237309e-001
3.536866e+003,6.222114e-001
3.538795e+003,6.211383e-001
3.540723e+003,6.195976e-001
3.542652e+003,6.182056e-001
3.544580e+003,6.168042e-001
3.546509e+003,6.150413e-001
3.548437e+003,6.134112e-001
3.550366e+003,6.128459e-001
3.552294e+003,6.112935e-001
3.554223e+003,6.092599e-001
3.556151e+003,6.076586e-001
3.558080e+003,6.064384e-001
3.560008e+003,6.045423e-001
3.561937e+003,6.025406e-001
3.563865e+003,6.014201e-001
3.565794e+003,6.009059e-001
3.567722e+003,5.964123e-001
3.569651e+003,5.933101e-001
3.571579e+003,5.919720e-001
3.573508e+003,5.904398e-001
3.575436e+003,5.881662e-001
3.577365e+003,5.859278e-001
3.579293e+003,5.832110e-001
3.581222e+003,5.809072e-001
3.583150e+003,5.787755e-001
3.585079e+003,5.773695e-001
3.587007e+003,5.746525e-001
3.588936e+003,5.702110e-001
3.590864e+003,5.680457e-001
3.592793e+003,5.665518e-001
3.594721e+003,5.637870e-001
3.596650e+003,5.609220e-001
3.598578e+003,5.583652e-001
3.600507e+003,5.555175e-001
3.602435e+003,5.518719e-001
3.604364e+003,5.497245e-001
3.606292e+003,5.478919e-001
3.608221e+003,5.444846e-001
3.610149e+003,5.408780e-001
3.612078e+003,5.388281e-001
3.614006e+003,5.347769e-001
3.615935e+003,5.325333e-001
3.617863e+003,5.304179e-001
3.619792e+003,5.255557e-001
3.621720e+003,5.216623e-001
3.623649e+003,5.195547e-001
3.625577e+003,5.175703e-001
3.627506e+003,5.167375e-001
3.629434e+003,5.096307e-001
3.631363e+003,5.062482e-001
3.633291e+003,5.036539e-001
3.635220e+003,4.997219e-001
3.637148e+003,4.965491e-001
3.639077e+003,4.934593e-001
3.641005e+003,4.902328e-001
3.642934e+003,4.869625e-001
3.644862e+003,4.849918e-001
3.646791e+003,4.841353e-001
3.648719e+003,4.792894e-001
3.650648e+003,4.733351e-001
3.652576e+003,4.708107e-001
3.654505e+003,4.699077e-001
3.656433e+003,4.658072e-001
3.658362e+003,4.626333e-001
3.660290e+003,4.602342e-001
3.662219e+003,4.578039e-001
3.664147e+003,4.553552e-001
3.666076e+003,4.537266e-001
3.668004e+003,4.525576e-001
3.669933e+003,4.491879e-001
3.671861e+003,4.460015e-001
3.673790e+003,4.465798e-001
3.675718e+003,4.429135e-001
3.677647e+003,4.402633e-001
3.679575e+003,4.385520e-001
3.681504e+003,4.367936e-001
3.683432e+003,4.355261e-001
3.685361e+003,4.347828e-001
3.687289e+003,4.339720e-001
3.689218e+003,4.317343e-001
3.691146e+003,4.292983e-001
3.693075e+003,4.282880e-001
3.695003e+003,4.275020e-001
3.696932e+003,4.263876e-001
3.698860e+003,4.255389e-001
3.700789e+003,4.250063e-001
3.702717e+003,4.233649e-001
3.704646e+003,4.226873e-001
3.706574e+003,4.223714e-001
3.708503e+003,4.225230e-001
3.710431e+003,4.219296e-001
3.712360e+003,4.197218e-001
3.714288e+003,4.183931e-001
3.716217e+003,4.182549e-001
3.718145e+003,4.177305e-001
3.720074e+003,4.174440e-001
3.722002e+003,4.170869e-001
3.723931e+003,4.165275e-001
3.725859e+003,4.158185e-001
3.727788e+003,4.152639e-001
3.729716e+003,4.155921e-001
3.731645e+003,4.163716e-001
3.733573e+003,4.154737e-001
3.735502e+003,4.144540e-001
3.737430e+003,4.124913e-001
3.739359e+003,4.126486e-001
3.741287e+003,4.130022e-001
3.743216e+003,4.142686e-001
3.745144e+003,4.135579e-001
3.747073e+003,4.133655e-001
3.749001e+003,4.137670e-001
3.750930e+003,4.134465e-001
3.752858e+003,4.124087e-001
3.754787e+003,4.123985e-001
3.756715e+003,4.127222e-001
3.758644e+003,4.128552e-001
3.760572e+003,4.121790e-001
3.762500e+003,4.121435e-001
3.764429e+003,4.122674e-001
3.766358e+003,4.118085e-001
3.768286e+003,4.117889e-001
3.770215e+003,4.116913e-001
3.772143e+003,4.113347e-001
3.774072e+003,4.114539e-001
3.776000e+003,4.114254e-001
3.777928e+003,4.117990e-001
3.779857e+003,4.116559e-001
3.781786e+003,4.117718e-001
3.783714e+003,4.121810e-001
3.785643e+003,4.118777e-001
3.787571e+003,4.114186e-001
3.789500e+003,4.114377e-001
3.791428e+003,4.113270e-001
3.793356e+003,4.115694e-001
3.795285e+003,4.120597e-001
3.797214e+003,4.121183e-001
3.799142e+003,4.121142e-001
3.801071e+003,4.126766e-001
3.802999e+003,4.119559e-001
3.804927e+003,4.126994e-001
3.806856e+003,4.126585e-001
3.808785e+003,4.119975e-001
3.810713e+003,4.122095e-001
3.812642e+003,4.127767e-001
3.814570e+003,4.134233e-001
3.816499e+003,4.130871e-001
3.818427e+003,4.130133e-001
3.820355e+003,4.138932e-001
3.822284e+003,4.130951e-001
3.824213e+003,4.135703e-001
3.826141e+003,4.139232e-001
3.828070e+003,4.138453e-001
3.829998e+003,4.141451e-001
3.831927e+003,4.145700e-001
3.833855e+003,4.147123e-001
3.835783e+003,4.153689e-001
3.837712e+003,4.159349e-001
3.839641e+003,4.160004e-001
3.841569e+003,4.154711e-001
3.843498e+003,4.154377e-001
3.845426e+003,4.154191e-001
3.847354e+003,4.159835e-001
3.849283e+003,4.164205e-001
3.851211e+003,4.173181e-001
3.853140e+003,4.180601e-001
3.855069e+003,4.171853e-001
3.856997e+003,4.170362e-001
3.858926e+003,4.174020e-001
3.860854e+003,4.177943e-001
3.862782e+003,4.181954e-001
3.864711e+003,4.182228e-001
3.866639e+003,4.184484e-001
3.868568e+003,4.193329e-001
3.870497e+003,4.192048e-001
3.872425e+003,4.191895e-001
3.874354e+003,4.198014e-001
3.876282e+003,4.198310e-001
3.878210e+003,4.205017e-001
3.880139e+003,4.209875e-001
3.882067e+003,4.211860e-001
3.883996e+003,4.213642e-001
3.885925e+003,4.213398e-001
3.887853e+003,4.211722e-001
3.889781e+003,4.218340e-001
3.891710e+003,4.220738e-001
3.893638e+003,4.222888e-001
3.895567e+003,4.226015e-001
3.897495e+003,4.233984e-001
3.899424e+003,4.237651e-001
3.901353e+003,4.242992e-001
3.903281e+003,4.246411e-001
3.905209e+003,4.247045e-001
3.907138e+003,4.245642e-001
3.909066e+003,4.250776e-001
3.910995e+003,4.255084e-001
3.912924e+003,4.258192e-001
3.914852e+003,4.260678e-001
3.916781e+003,4.266435e-001
3.918709e+003,4.267819e-001
3.920637e+003,4.270265e-001
3.922566e+003,4.273641e-001
3.924494e+003,4.280267e-001
3.926423e+003,4.282343e-001
3.928352e+003,4.287964e-001
3.930280e+003,4.291025e-001
3.932208e+003,4.296456e-001
3.934137e+003,4.297781e-001
3.936065e+003,4.299770e-001
3.937994e+003,4.303608e-001
3.939922e+003,4.310130e-001
3.941851e+003,4.311987e-001
3.943780e+003,4.313317e-001
3.945708e+003,4.316411e-001
3.947636e+003,4.321084e-001
3.949565e+003,4.324377e-001
3.951493e+003,4.329200e-001
3.953422e+003,4.334053e-001
3.955350e+003,4.337856e-001
3.957279e+003,4.338771e-001
3.959208e+003,4.344627e-001
3.961136e+003,4.349903e-001
3.963064e+003,4.353112e-001
3.964993e+003,4.353440e-001
3.966921e+003,4.358021e-001
3.968850e+003,4.363753e-001
3.970778e+003,4.368763e-001
3.972707e+003,4.372253e-001
3.974635e+003,4.376671e-001
3.976564e+003,4.378414e-001
3.978492e+003,4.380286e-001
3.980421e+003,4.382322e-001
3.982349e+003,4.387276e-001
3.984278e+003,4.390972e-001
3.986206e+003,4.396187e-001
3.988135e+003,4.397832e-001
3.990063e+003,4.401883e-001
3.991992e+003,4.406862e-001
3.993920e+003,4.410319e-001
3.995849e+003,4.412261e-001
3.997777e+003,4.417107e-001
3.999706e+003,4.422294e-001
