3.991992e+002,4.794354e+001
4.011277e+002,6.555299e+001
4.030562e+002,7.483086e+001
4.049847e+002,6.055897e+001
4.069132e+002,4.375906e+001
4.088417e+002,4.852446e+001
4.107702e+002,5.205095e+001
4.126987e+002,4.209819e+001
4.146272e+002,4.699744e+001
4.165557e+002,5.405072e+001
4.184842e+002,3.855610e+001
4.204127e+002,3.114625e+001
4.223412e+002,4.275416e+001
4.242697e+002,4.448735e+001
4.261982e+002,3.546797e+001
4.281267e+002,3.538255e+001
4.300552e+002,3.637307e+001
4.319837e+002,2.932916e+001
4.339122e+002,2.811810e+001
4.358407e+002,3.432006e+001
4.377692e+002,3.336817e+001
4.396977e+002,2.481628e+001
4.416262e+002,2.547236e+001
4.435547e+002,2.690104e+001
4.454832e+002,2.217158e+001
4.474117e+002,2.480451e+001
4.493401e+002,3.035383e+001
4.512686e+002,2.763598e+001
4.531971e+002,2.145927e+001
4.551256e+002,2.397907e+001
4.570541e+002,2.547566e+001
4.589826e+002,2.094065e+001
4.609111e+002,2.433770e+001
4.628396e+002,2.716486e+001
4.647681e+002,2.309551e+001
4.666966e+002,1.933122e+001
4.686251e+002,2.327211e+001
4.705536e+002,2.481001e+001
4.724821e+002,2.352509e+001
4.744106e+002,2.702172e+001
4.763391e+002,2.897878e+001
4.782676e+002,2.731491e+001
4.801961e+002,2.657709e+001
4.821246e+002,3.185917e+001
4.840531e+002,3.651607e+001
4.859816e+002,3.664062e+001
4.879101e+002,3.936749e+001
4.898386e+002,4.022906e+001
4.917671e+002,3.898834e+001
4.936956e+002,4.193242e+001
4.956241e+002,4.782177e+001
4.975526e+002,5.008588e+001
4.994811e+002,4.926423e+001
5.014096e+002,5.176762e+001
5.033381e+002,5.347731e+001
5.052666e+002,5.336488e+001
5.071951e+002,5.613391e+001
5.091236e+002,6.069403e+001
5.110521e+002,5.999411e+001
5.129806e+002,5.842123e+001
5.149091e+002,6.085814e+001
5.168376e+002,6.066286e+001
5.187661e+002,5.946933e+001
5.206946e+002,6.180231e+001
5.226231e+002,6.377143e+001
5.245516e+002,6.108764e+001
5.264801e+002,5.852071e+001
5.284086e+002,6.093687e+001
5.303371e+002,6.146666e+001
5.322656e+002,5.997417e+001
5.341941e+002,6.081179e+001
5.361226e+002,6.110751e+001
5.380511e+002,5.798141e+001
5.399796e+002,5.537319e+001
5.419081e+002,5.757171e+001
5.438365e+002,5.734078e+001
5.457651e+002,5.546823e+001
5.476936e+002,5.610051e+001
5.496221e+002,5.648560e+001
5.515506e+002,5.390184e+001
5.534791e+002,5.265680e+001
5.554076e+002,5.495465e+001
5.573361e+002,5.482389e+001
5.592646e+002,5.387761e+001
5.611931e+002,5.534042e+001
5.631216e+002,5.590230e+001
5.650500e+002,5.543708e+001
5.669786e+002,5.713309e+001
5.689070e+002,6.036730e+001
5.708356e+002,6.048469e+001
5.727640e+002,6.019654e+001
5.746926e+002,6.191842e+001
5.766210e+002,6.329137e+001
5.785496e+002,6.369868e+001
5.804780e+002,6.566141e+001
5.824066e+002,6.863364e+001
5.843350e+002,6.829464e+001
5.862635e+002,6.795192e+001
5.881920e+002,7.071466e+001
5.901205e+002,7.234689e+001
5.920490e+002,7.309559e+001
5.939775e+002,7.392883e+001
5.959060e+002,7.472117e+001
5.978345e+002,7.335257e+001
5.997631e+002,7.348482e+001
6.016915e+002,7.614796e+001
6.036201e+002,7.743626e+001
6.055485e+002,7.763091e+001
6.074771e+002,7.877378e+001
6.094055e+002,7.965208e+001
6.113340e+002,7.860390e+001
6.132625e+002,7.963315e+001
6.151910e+002,8.223615e+001
6.171195e+002,8.287974e+001
6.190480e+002,8.325888e+001
6.209765e+002,8.452838e+001
6.229050e+002,8.586320e+001
6.248335e+002,8.652596e+001
6.267620e+002,8.782866e+001
6.286905e+002,9.033457e+001
6.306190e+002,9.138756e+001
6.325475e+002,9.153394e+001
6.344760e+002,9.249830e+001
6.364045e+002,9.392491e+001
6.383330e+002,9.486487e+001
6.402615e+002,9.707615e+001
6.421900e+002,9.920607e+001
6.441185e+002,9.872014e+001
6.460470e+002,9.848431e+001
6.479755e+002,9.914797e+001
6.499040e+002,9.959126e+001
6.518325e+002,9.920789e+001
6.537610e+002,9.983290e+001
6.556895e+002,9.997558e+001
6.576180e+002,9.833201e+001
6.595465e+002,9.822217e+001
6.614750e+002,9.953680e+001
6.634035e+002,1.000000e+002
6.653320e+002,9.861231e+001
6.672605e+002,9.687885e+001
6.691890e+002,9.770268e+001
6.711175e+002,9.682590e+001
6.730460e+002,9.638011e+001
6.749745e+002,9.761390e+001
6.769030e+002,9.758305e+001
6.788315e+002,9.613631e+001
6.807599e+002,9.593737e+001
6.826885e+002,9.545748e+001
6.846169e+002,9.300224e+001
6.865455e+002,9.197011e+001
6.884739e+002,9.170077e+001
6.904025e+002,8.961942e+001
6.923309e+002,8.785448e+001
6.942595e+002,8.793159e+001
6.961880e+002,8.882856e+001
6.981165e+002,8.890157e+001
7.000450e+002,8.955097e+001
7.019734e+002,8.951971e+001
7.039020e+002,8.769060e+001
7.058304e+002,8.555110e+001
7.077590e+002,8.415986e+001
7.096874e+002,8.213535e+001
7.116160e+002,7.917539e+001
7.135444e+002,7.840322e+001
7.154730e+002,7.783929e+001
7.174014e+002,7.595135e+001
7.193300e+002,7.445717e+001
7.212584e+002,7.423019e+001
7.231870e+002,7.361198e+001
7.251154e+002,7.184946e+001
7.270439e+002,7.111255e+001
7.289724e+002,7.037730e+001
7.309009e+002,6.865034e+001
7.328294e+002,6.809339e+001
7.347579e+002,6.851249e+001
7.366864e+002,6.840585e+001
7.386149e+002,6.731393e+001
7.405434e+002,6.691986e+001
7.424719e+002,6.640027e+001
7.444004e+002,6.512287e+001
7.463289e+002,6.513995e+001
7.482574e+002,6.539656e+001
7.501859e+002,6.483249e+001
7.521144e+002,6.370132e+001
7.540429e+002,6.348846e+001
7.559714e+002,6.320008e+001
7.578999e+002,6.237437e+001
7.598284e+002,6.219353e+001
7.617569e+002,6.170144e+001
7.636854e+002,6.029095e+001
7.656139e+002,5.849822e+001
7.675424e+002,5.769308e+001
7.694709e+002,5.665128e+001
7.713994e+002,5.505514e+001
7.733279e+002,5.438989e+001
7.752564e+002,5.382158e+001
7.771849e+002,5.272370e+001
7.791134e+002,5.224548e+001
7.810419e+002,5.336322e+001
7.829704e+002,5.384403e+001
7.848989e+002,5.313716e+001
7.868274e+002,5.299869e+001
7.887559e+002,5.221017e+001
7.906844e+002,5.056042e+001
7.926129e+002,4.965004e+001
7.945414e+002,5.053772e+001
7.964699e+002,5.100897e+001
7.983984e+002,5.051464e+001
8.003269e+002,5.148531e+001
8.022554e+002,5.234647e+001
8.041839e+002,5.241446e+001
8.061124e+002,5.324104e+001
8.080409e+002,5.468872e+001
8.099694e+002,5.488736e+001
8.118979e+002,5.420548e+001
8.138264e+002,5.446887e+001
8.157549e+002,5.448712e+001
8.176833e+002,5.414030e+001
8.196119e+002,5.403443e+001
8.215403e+002,5.458015e+001
8.234689e+002,5.418183e+001
8.253973e+002,5.333854e+001
8.273259e+002,5.385435e+001
8.292543e+002,5.420301e+001
8.311829e+002,5.412018e+001
8.331113e+002,5.453791e+001
8.350399e+002,5.453690e+001
8.369683e+002,5.355479e+001
8.388969e+002,5.299869e+001
8.408253e+002,5.378102e+001
8.427538e+002,5.391579e+001
8.446824e+002,5.367612e+001
8.466108e+002,5.383143e+001
8.485394e+002,5.354731e+001
8.504678e+002,5.262180e+001
8.523964e+002,5.201762e+001
8.543248e+002,5.220532e+001
8.562534e+002,5.168575e+001
8.581818e+002,5.113153e+001
8.601104e+002,5.120511e+001
8.620388e+002,5.081352e+001
8.639673e+002,4.989793e+001
8.658958e+002,4.925491e+001
8.678243e+002,4.893387e+001
8.697528e+002,4.623672e+001
8.716813e+002,4.239969e+001
8.736098e+002,4.105524e+001
8.755383e+002,4.182334e+001
8.774668e+002,4.295866e+001
8.793953e+002,4.426745e+001
8.813238e+002,4.556184e+001
8.832523e+002,4.529863e+001
8.851808e+002,4.484402e+001
8.871093e+002,4.510559e+001
8.890378e+002,4.484837e+001
8.909663e+002,4.426242e+001
8.928948e+002,4.382571e+001
8.948233e+002,4.341432e+001
8.967518e+002,4.237351e+001
8.986803e+002,4.189450e+001
9.006088e+002,4.238712e+001
9.025373e+002,4.203574e+001
9.044658e+002,4.127578e+001
9.063943e+002,4.107404e+001
9.083228e+002,4.094197e+001
9.102513e+002,3.989367e+001
9.121798e+002,3.935411e+001
9.141083e+002,3.988605e+001
9.160368e+002,3.960153e+001
9.179653e+002,3.913568e+001
9.198938e+002,3.891333e+001
9.218223e+002,3.889006e+001
9.237508e+002,3.831849e+001
9.256793e+002,3.836866e+001
9.276078e+002,3.905460e+001
9.295363e+002,3.851476e+001
9.314648e+002,3.752375e+001
9.333932e+002,3.723716e+001
9.353218e+002,3.709178e+001
9.372502e+002,3.656284e+001
9.391788e+002,3.668182e+001
9.411072e+002,3.696861e+001
9.430358e+002,3.614393e+001
9.449643e+002,3.534567e+001
9.468928e+002,3.493462e+001
9.488213e+002,3.456709e+001
9.507498e+002,3.392390e+001
9.526783e+002,3.352143e+001
9.546068e+002,3.323480e+001
9.565353e+002,3.219793e+001
9.584637e+002,3.146698e+001
9.603923e+002,3.146321e+001
9.623207e+002,3.098013e+001
9.642493e+002,3.003952e+001
9.661777e+002,2.939392e+001
9.681063e+002,2.872910e+001
9.700347e+002,2.754684e+001
9.719633e+002,2.718175e+001
9.738917e+002,2.709425e+001
9.758203e+002,2.654321e+001
9.777487e+002,2.554176e+001
9.796772e+002,2.504870e+001
9.816057e+002,2.460548e+001
9.835342e+002,2.346295e+001
9.854627e+002,2.323300e+001
9.873912e+002,2.330371e+001
9.893197e+002,2.251294e+001
9.912482e+002,2.139048e+001
9.931768e+002,2.078486e+001
9.951052e+002,2.036882e+001
9.970338e+002,1.961105e+001
9.989622e+002,1.943896e+001
1.000891e+003,1.922702e+001
1.002819e+003,1.829716e+001
1.004748e+003,1.731628e+001
1.006676e+003,1.698179e+001
1.008605e+003,1.684858e+001
1.010533e+003,1.640752e+001
1.012462e+003,1.652917e+001
1.014390e+003,1.640121e+001
1.016319e+003,1.559237e+001
1.018247e+003,1.513355e+001
1.020176e+003,1.509479e+001
1.022104e+003,1.497012e+001
1.024033e+003,1.407397e+001
1.025961e+003,1.401378e+001
1.027890e+003,1.405649e+001
1.029818e+003,1.330303e+001
1.031747e+003,1.311259e+001
1.033675e+003,1.347947e+001
1.035604e+003,1.326030e+001
1.037532e+003,1.255698e+001
1.039461e+003,1.252732e+001
1.041389e+003,1.254748e+001
1.043318e+003,1.201228e+001
1.045246e+003,1.201188e+001
1.047175e+003,1.215551e+001
1.049103e+003,1.193985e+001
1.051032e+003,1.134658e+001
1.052960e+003,1.137510e+001
1.054889e+003,1.140204e+001
1.056817e+003,1.087864e+001
1.058746e+003,1.089403e+001
1.060674e+003,1.116617e+001
1.062603e+003,1.093708e+001
1.064531e+003,1.037228e+001
1.066460e+003,1.051516e+001
1.068388e+003,1.079557e+001
1.070317e+003,1.069149e+001
1.072245e+003,1.081521e+001
1.074174e+003,1.077559e+001
1.076102e+003,1.038877e+001
1.078031e+003,1.011527e+001
1.079959e+003,1.062587e+001
1.081888e+003,1.077579e+001
1.083816e+003,1.035862e+001
1.085745e+003,1.057521e+001
1.087673e+003,1.063552e+001
1.089602e+003,1.008973e+001
1.091530e+003,1.000000e+001
1.093459e+003,1.065992e+001
1.095387e+003,1.081401e+001
1.097316e+003,1.039029e+001
1.099244e+003,1.071930e+001
1.101173e+003,1.087348e+001
1.103101e+003,1.071794e+001
1.105030e+003,1.083293e+001
1.106958e+003,1.151303e+001
1.108887e+003,1.164985e+001
1.110815e+003,1.134821e+001
1.112744e+003,1.163254e+001
1.114672e+003,1.198824e+001
1.116601e+003,1.224796e+001
1.118529e+003,1.258128e+001
1.120458e+003,1.311578e+001
1.122386e+003,1.316453e+001
1.124315e+003,1.291594e+001
1.126243e+003,1.342927e+001
1.128172e+003,1.398254e+001
1.130100e+003,1.413900e+001
1.132029e+003,1.440796e+001
1.133957e+003,1.469623e+001
1.135886e+003,1.445693e+001
1.137814e+003,1.424281e+001
1.139743e+003,1.487809e+001
1.141671e+003,1.519613e+001
1.143600e+003,1.524138e+001
1.145528e+003,1.564412e+001
1.147457e+003,1.584748e+001
1.149385e+003,1.558162e+001
1.151314e+003,1.544594e+001
1.153242e+003,1.616352e+001
1.155171e+003,1.622225e+001
1.157099e+003,1.594108e+001
1.159028e+003,1.623689e+001
1.160956e+003,1.648169e+001
1.162885e+003,1.634120e+001
1.164813e+003,1.646681e+001
1.166742e+003,1.706047e+001
1.168670e+003,1.704767e+001
1.170599e+003,1.677742e+001
1.172527e+003,1.724945e+001
1.174456e+003,1.764199e+001
1.176384e+003,1.767644e+001
1.178313e+003,1.800015e+001
1.180241e+003,1.879096e+001
1.182170e+003,1.882475e+001
1.184098e+003,1.867220e+001
1.186027e+003,1.906193e+001
1.187955e+003,1.925543e+001
1.189884e+003,1.933393e+001
1.191812e+003,1.969258e+001
1.193741e+003,2.028076e+001
1.195669e+003,2.039920e+001
1.197598e+003,2.047483e+001
1.199526e+003,2.102898e+001
1.201455e+003,2.135753e+001
1.203383e+003,2.158323e+001
1.205312e+003,2.194340e+001
1.207240e+003,2.231232e+001
1.209169e+003,2.233339e+001
1.211097e+003,2.265928e+001
1.213026e+003,2.341858e+001
1.214954e+003,2.381556e+001
1.216883e+003,2.392266e+001
1.218811e+003,2.422606e+001
1.220740e+003,2.471101e+001
1.222668e+003,2.490016e+001
1.224597e+003,2.523059e+001
1.226525e+003,2.593456e+001
1.228453e+003,2.621033e+001
1.230382e+003,2.631067e+001
1.232311e+003,2.665321e+001
1.234239e+003,2.706419e+001
1.236167e+003,2.737403e+001
1.238096e+003,2.791029e+001
1.240025e+003,2.859964e+001
1.241953e+003,2.884215e+001
1.243882e+003,2.891953e+001
1.245810e+003,2.938252e+001
1.247739e+003,3.006620e+001
1.249667e+003,3.035933e+001
1.251596e+003,3.086176e+001
1.253524e+003,3.160235e+001
1.255453e+003,3.178636e+001
1.257381e+003,3.206715e+001
1.259310e+003,3.267879e+001
1.261238e+003,3.327976e+001
1.263167e+003,3.361496e+001
1.265095e+003,3.403047e+001
1.267024e+003,3.452895e+001
1.268952e+003,3.468351e+001
1.270880e+003,3.505956e+001
1.272809e+003,3.582152e+001
1.274738e+003,3.620899e+001
1.276666e+003,3.629439e+001
1.278594e+003,3.658084e+001
1.280523e+003,3.697408e+001
1.282452e+003,3.695734e+001
1.284380e+003,3.735034e+001
1.286308e+003,3.809125e+001
1.288237e+003,3.842380e+001
1.290166e+003,3.836507e+001
1.292094e+003,3.868280e+001
1.294022e+003,3.918378e+001
1.295951e+003,3.913454e+001
1.297880e+003,3.940915e+001
1.299808e+003,3.998465e+001
1.301736e+003,4.014526e+001
1.303665e+003,4.017155e+001
1.305594e+003,4.059700e+001
1.307522e+003,4.107542e+001
1.309450e+003,4.124309e+001
1.311379e+003,4.164996e+001
1.313307e+003,4.209942e+001
1.315236e+003,4.184170e+001
1.317164e+003,4.184357e+001
1.319093e+003,4.256467e+001
1.321021e+003,4.297532e+001
1.322950e+003,4.291900e+001
1.324878e+003,4.327033e+001
1.326807e+003,4.356644e+001
1.328735e+003,4.343687e+001
1.330664e+003,4.363769e+001
1.332592e+003,4.413665e+001
1.334521e+003,4.436403e+001
1.336449e+003,4.418973e+001
1.338378e+003,4.445584e+001
1.340307e+003,4.521863e+001
1.342235e+003,4.492448e+001
1.344163e+003,4.490110e+001
1.346092e+003,4.539814e+001
1.348021e+003,4.566954e+001
1.349949e+003,4.559007e+001
1.351877e+003,4.572011e+001
1.353806e+003,4.589393e+001
1.355734e+003,4.593280e+001
1.357663e+003,4.604305e+001
1.359591e+003,4.621360e+001
1.361520e+003,4.636061e+001
1.363448e+003,4.682651e+001
1.365377e+003,4.679413e+001
1.367305e+003,4.676109e+001
1.369234e+003,4.681388e+001
1.371162e+003,4.679440e+001
1.373091e+003,4.692051e+001
1.375019e+003,4.737722e+001
1.376948e+003,4.689993e+001
1.378876e+003,4.685750e+001
1.380805e+003,4.694991e+001
1.382733e+003,4.668848e+001
1.384662e+003,4.641985e+001
1.386590e+003,4.645817e+001
1.388519e+003,4.631703e+001
1.390447e+003,4.544568e+001
1.392376e+003,4.494547e+001
1.394304e+003,4.495576e+001
1.396233e+003,4.429832e+001
1.398161e+003,4.373674e+001
1.400090e+003,4.364157e+001
1.402018e+003,4.241813e+001
1.403947e+003,4.169155e+001
1.405875e+003,4.173187e+001
1.407804e+003,4.089386e+001
1.409732e+003,3.971833e+001
1.411661e+003,3.937801e+001
1.413589e+003,3.894433e+001
1.415518e+003,3.818602e+001
1.417446e+003,3.790776e+001
1.419375e+003,3.920093e+001
1.421303e+003,3.838317e+001
1.423232e+003,3.723662e+001
1.425160e+003,3.738365e+001
1.427089e+003,3.684182e+001
1.429017e+003,3.657086e+001
1.430946e+003,3.692189e+001
1.432874e+003,3.676486e+001
1.434803e+003,3.604755e+001
1.436731e+003,3.655464e+001
1.438660e+003,3.699227e+001
1.440588e+003,3.648610e+001
1.442517e+003,3.618305e+001
1.444445e+003,3.606030e+001
1.446374e+003,3.600865e+001
1.448302e+003,3.633447e+001
1.450231e+003,3.611214e+001
1.452159e+003,3.616389e+001
1.454088e+003,3.581052e+001
1.456016e+003,3.566256e+001
1.457945e+003,3.847289e+001
1.459873e+003,3.772267e+001
1.461802e+003,3.652724e+001
1.463730e+003,3.632594e+001
1.465659e+003,3.776918e+001
1.467587e+003,3.742091e+001
1.469516e+003,3.654161e+001
1.471444e+003,3.662906e+001
1.473373e+003,3.850121e+001
1.475301e+003,3.816116e+001
1.477230e+003,3.828852e+001
1.479158e+003,3.817818e+001
1.481087e+003,3.825726e+001
1.483015e+003,3.811713e+001
1.484944e+003,3.795195e+001
1.486872e+003,3.830622e+001
1.488801e+003,3.903090e+001
1.490729e+003,4.037097e+001
1.492658e+003,4.015158e+001
1.494586e+003,3.919986e+001
1.496515e+003,3.966535e+001
1.498443e+003,4.122946e+001
1.500372e+003,4.152507e+001
1.502300e+003,4.105481e+001
1.504229e+003,4.028079e+001
1.506157e+003,4.082134e+001
1.508086e+003,4.457678e+001
1.510014e+003,4.362370e+001
1.511943e+003,4.383232e+001
1.513871e+003,4.365128e+001
1.515800e+003,4.372897e+001
1.517728e+003,4.498902e+001
1.519657e+003,4.436529e+001
1.521585e+003,4.544916e+001
1.523514e+003,4.598214e+001
1.525442e+003,4.650805e+001
1.527371e+003,4.736588e+001
1.529299e+003,4.667399e+001
1.531228e+003,4.587177e+001
1.533156e+003,4.701796e+001
1.535085e+003,4.816486e+001
1.537013e+003,4.678697e+001
1.538942e+003,4.756911e+001
1.540870e+003,5.100397e+001
1.542799e+003,5.006605e+001
1.544727e+003,5.089800e+001
1.546656e+003,5.090070e+001
1.548584e+003,5.003350e+001
1.550513e+003,5.105844e+001
1.552441e+003,5.110909e+001
1.554370e+003,5.110619e+001
1.556298e+003,5.009690e+001
1.558227e+003,5.064965e+001
1.560155e+003,5.653628e+001
1.562084e+003,5.376354e+001
1.564012e+003,5.286280e+001
1.565941e+003,5.322753e+001
1.567869e+003,5.245370e+001
1.569798e+003,5.421490e+001
1.571726e+003,5.453977e+001
1.573655e+003,5.330648e+001
1.575583e+003,5.383571e+001
1.577512e+003,5.570328e+001
1.579440e+003,5.474236e+001
1.581369e+003,5.406303e+001
1.583297e+003,5.419254e+001
1.585226e+003,5.465588e+001
1.587154e+003,5.461256e+001
1.589083e+003,5.437196e+001
1.591011e+003,5.441357e+001
1.592940e+003,5.450306e+001
1.594868e+003,5.452551e+001
1.596797e+003,5.472671e+001
1.598725e+003,5.483313e+001
1.600654e+003,5.473000e+001
1.602582e+003,5.457737e+001
1.604511e+003,5.446764e+001
1.606439e+003,5.437844e+001
1.608368e+003,5.458204e+001
1.610296e+003,5.466324e+001
1.612225e+003,5.439454e+001
1.614153e+003,5.332631e+001
1.616082e+003,5.345953e+001
1.618010e+003,5.509811e+001
1.619939e+003,5.413738e+001
1.621867e+003,5.340047e+001
1.623796e+003,5.470155e+001
1.625724e+003,5.425756e+001
1.627653e+003,5.391671e+001
1.629581e+003,5.424601e+001
1.631510e+003,5.382401e+001
1.633438e+003,5.327762e+001
1.635367e+003,5.412803e+001
1.637295e+003,5.632095e+001
1.639224e+003,5.545505e+001
1.641152e+003,5.481428e+001
1.643081e+003,5.418676e+001
1.645009e+003,5.391669e+001
1.646938e+003,5.657693e+001
1.648866e+003,5.639370e+001
1.650795e+003,5.381014e+001
1.652723e+003,5.512487e+001
1.654652e+003,5.856464e+001
1.656580e+003,5.684088e+001
1.658509e+003,5.615076e+001
1.660437e+003,5.555492e+001
1.662366e+003,5.589656e+001
1.664294e+003,5.691516e+001
1.666223e+003,5.598692e+001
1.668151e+003,5.561750e+001
1.670080e+003,5.767087e+001
1.672008e+003,5.774822e+001
1.673937e+003,5.651255e+001
1.675865e+003,5.770782e+001
1.677794e+003,5.724111e+001
1.679722e+003,5.702254e+001
1.681651e+003,5.612797e+001
1.683579e+003,5.676058e+001
1.685508e+003,6.000349e+001
1.687436e+003,5.794725e+001
1.689365e+003,5.779190e+001
1.691293e+003,5.819712e+001
1.693222e+003,5.720129e+001
1.695150e+003,5.683817e+001
1.697079e+003,5.848498e+001
1.699007e+003,5.751173e+001
1.700936e+003,5.999113e+001
1.702864e+003,5.884613e+001
1.704793e+003,5.879890e+001
1.706721e+003,6.001228e+001
1.708650e+003,5.893579e+001
1.710578e+003,5.857756e+001
1.712507e+003,5.819483e+001
1.714435e+003,5.816787e+001
1.716364e+003,5.910127e+001
1.718292e+003,6.166719e+001
1.720221e+003,6.029744e+001
1.722149e+003,5.872100e+001
1.724078e+003,5.902154e+001
1.726006e+003,5.912438e+001
1.727935e+003,5.868108e+001
1.729863e+003,5.888739e+001
1.731792e+003,5.860973e+001
1.733720e+003,5.970996e+001
1.735649e+003,6.083390e+001
1.737577e+003,5.909511e+001
1.739506e+003,5.977932e+001
1.741434e+003,5.979773e+001
1.743363e+003,5.974306e+001
1.745291e+003,5.974324e+001
1.747220e+003,5.939865e+001
1.749148e+003,5.976649e+001
1.751077e+003,6.105136e+001
1.753005e+003,6.096173e+001
1.754934e+003,5.951071e+001
1.756862e+003,6.003608e+001
1.758791e+003,6.008266e+001
1.760719e+003,5.973458e+001
1.762648e+003,6.070759e+001
1.764576e+003,6.041240e+001
1.766505e+003,5.982206e+001
1.768433e+003,5.984552e+001
1.770362e+003,5.925327e+001
1.772290e+003,6.098050e+001
1.774219e+003,6.112218e+001
1.776147e+003,6.027850e+001
1.778076e+003,5.994670e+001
1.780004e+003,6.007706e+001
1.781933e+003,5.999556e+001
1.783861e+003,5.969890e+001
1.785790e+003,6.012310e+001
1.787718e+003,5.951358e+001
1.789647e+003,5.867688e+001
1.791575e+003,5.958526e+001
1.793504e+003,6.039897e+001
1.795432e+003,5.945956e+001
1.797361e+003,5.936810e+001
1.799289e+003,5.943330e+001
1.801218e+003,6.008490e+001
1.803146e+003,6.015163e+001
1.805075e+003,6.002861e+001
1.807003e+003,5.971013e+001
1.808932e+003,5.956732e+001
1.810860e+003,6.031404e+001
1.812789e+003,6.073217e+001
1.814717e+003,6.002990e+001
1.816646e+003,5.995940e+001
1.818574e+003,6.014876e+001
1.820503e+003,5.999733e+001
1.822431e+003,5.955218e+001
1.824360e+003,6.011689e+001
1.826288e+003,6.051691e+001
1.828217e+003,5.967965e+001
1.830145e+003,6.078550e+001
1.832074e+003,6.075574e+001
1.834002e+003,6.000017e+001
1.835931e+003,6.000894e+001
1.837859e+003,6.053038e+001
1.839788e+003,6.028643e+001
1.841716e+003,5.938264e+001
1.843645e+003,6.005777e+001
1.845573e+003,6.108575e+001
1.847502e+003,6.063277e+001
1.849430e+003,6.045711e+001
1.851359e+003,6.028743e+001
1.853287e+003,6.007783e+001
1.855216e+003,5.990519e+001
1.857144e+003,5.994128e+001
1.859073e+003,6.011107e+001
1.861001e+003,6.019613e+001
1.862930e+003,5.999849e+001
1.864858e+003,5.962085e+001
1.866786e+003,5.914312e+001
1.868715e+003,6.002839e+001
1.870644e+003,6.079608e+001
1.872572e+003,6.026303e+001
1.874500e+003,5.988018e+001
1.876429e+003,5.981391e+001
1.878358e+003,5.993423e+001
1.880286e+003,5.970750e+001
1.882215e+003,5.953226e+001
1.884143e+003,5.988228e+001
1.886072e+003,5.994619e+001
1.888000e+003,5.951840e+001
1.889929e+003,6.006437e+001
1.891857e+003,6.010252e+001
1.893786e+003,5.982780e+001
1.895714e+003,6.017443e+001
1.897643e+003,6.027150e+001
1.899571e+003,6.007295e+001
1.901500e+003,5.991136e+001
1.903428e+003,5.985381e+001
1.905357e+003,6.003333e+001
1.907285e+003,5.999336e+001
1.909214e+003,6.028804e+001
1.911142e+003,6.065983e+001
1.913071e+003,6.027928e+001
1.914999e+003,5.980659e+001
1.916927e+003,5.989753e+001
1.918856e+003,6.076233e+001
1.920785e+003,6.017461e+001
1.922713e+003,6.045598e+001
1.924641e+003,6.074187e+001
1.926570e+003,6.026277e+001
1.928499e+003,6.023881e+001
1.930427e+003,6.042997e+001
1.932355e+003,6.063392e+001
1.934284e+003,6.049427e+001
1.936213e+003,6.026999e+001
1.938141e+003,6.027941e+001
1.940069e+003,5.990708e+001
1.941998e+003,6.017041e+001
1.943927e+003,6.080991e+001
1.945855e+003,6.069117e+001
1.947783e+003,6.051551e+001
1.949712e+003,6.026688e+001
1.951641e+003,6.045317e+001
1.953569e+003,6.037380e+001
1.955497e+003,6.037251e+001
1.957426e+003,6.041488e+001
1.959354e+003,6.043073e+001
1.961283e+003,6.027570e+001
1.963211e+003,6.018211e+001
1.965140e+003,6.020141e+001
1.967068e+003,6.065130e+001
1.968997e+003,6.072921e+001
1.970925e+003,6.056694e+001
1.972854e+003,6.033411e+001
1.974782e+003,6.009547e+001
1.976711e+003,6.005962e+001
1.978639e+003,6.020251e+001
1.980568e+003,6.016762e+001
1.982496e+003,6.013234e+001
1.984425e+003,6.019006e+001
1.986354e+003,6.015609e+001
1.988282e+003,6.011726e+001
1.990210e+003,6.016669e+001
1.992139e+003,6.063367e+001
1.994068e+003,6.043151e+001
1.995996e+003,6.006134e+001
1.997924e+003,6.015612e+001
1.999853e+003,6.005683e+001
2.001781e+003,6.005293e+001
2.003710e+003,6.034098e+001
2.005638e+003,6.048602e+001
2.007567e+003,6.019912e+001
2.009495e+003,6.025254e+001
2.011424e+003,6.036493e+001
2.013352e+003,6.021995e+001
2.015281e+003,6.008979e+001
2.017209e+003,6.052515e+001
2.019138e+003,6.058630e+001
2.021066e+003,6.022633e+001
2.022995e+003,6.021007e+001
2.024923e+003,6.034439e+001
2.026852e+003,6.022773e+001
2.028780e+003,6.026383e+001
2.030709e+003,6.037942e+001
2.032637e+003,6.037214e+001
2.034566e+003,6.014442e+001
2.036494e+003,6.028534e+001
2.038423e+003,6.050573e+001
2.040351e+003,6.054922e+001
2.042280e+003,6.067481e+001
2.044208e+003,6.068436e+001
2.046137e+003,6.050862e+001
2.048065e+003,6.038739e+001
2.049994e+003,6.060079e+001
2.051922e+003,6.067398e+001
2.053851e+003,6.046312e+001
2.055779e+003,6.041346e+001
2.057708e+003,6.049634e+001
2.059636e+003,6.055721e+001
2.061565e+003,6.053903e+001
2.063493e+003,6.070957e+001
2.065422e+003,6.082708e+001
2.067350e+003,6.054554e+001
2.069279e+003,6.044845e+001
2.071207e+003,6.043040e+001
2.073136e+003,6.039429e+001
2.075064e+003,6.052950e+001
2.076993e+003,6.074875e+001
2.078921e+003,6.080488e+001
2.080850e+003,6.050464e+001
2.082778e+003,6.042829e+001
2.084707e+003,6.054150e+001
2.086635e+003,6.066821e+001
2.088564e+003,6.051772e+001
2.090492e+003,6.062757e+001
2.092421e+003,6.070263e+001
2.094349e+003,6.056590e+001
2.096278e+003,6.068876e+001
2.098206e+003,6.086828e+001
2.100135e+003,6.085032e+001
2.102063e+003,6.070853e+001
2.103992e+003,6.074734e+001
2.105920e+003,6.065889e+001
2.107849e+003,6.046440e+001
2.109777e+003,6.060744e+001
2.111706e+003,6.065852e+001
2.113634e+003,6.060271e+001
2.115563e+003,6.056841e+001
2.117491e+003,6.054020e+001
2.119420e+003,6.038620e+001
2.121348e+003,6.034006e+001
2.123277e+003,6.064204e+001
2.125205e+003,6.070630e+001
2.127134e+003,6.045061e+001
2.129062e+003,6.034109e+001
2.130991e+003,6.042685e+001
2.132919e+003,6.048311e+001
2.134848e+003,6.036892e+001
2.136776e+003,6.056452e+001
2.138705e+003,6.057311e+001
2.140633e+003,6.027404e+001
2.142562e+003,6.027879e+001
2.144490e+003,6.053862e+001
2.146419e+003,6.062724e+001
2.148347e+003,6.058561e+001
2.150276e+003,6.074099e+001
2.152204e+003,6.056944e+001
2.154133e+003,6.030590e+001
2.156061e+003,6.042503e+001
2.157990e+003,6.056785e+001
2.159918e+003,6.049780e+001
2.161847e+003,6.035202e+001
2.163775e+003,6.040112e+001
2.165704e+003,6.031314e+001
2.167632e+003,6.029318e+001
2.169561e+003,6.042155e+001
2.171489e+003,6.048157e+001
2.173418e+003,6.028692e+001
2.175346e+003,6.021824e+001
2.177275e+003,6.020455e+001
2.179203e+003,6.010782e+001
2.181132e+003,6.005993e+001
2.183060e+003,6.027124e+001
2.184989e+003,6.039679e+001
2.186917e+003,6.035337e+001
2.188846e+003,6.010539e+001
2.190774e+003,6.006726e+001
2.192703e+003,6.006783e+001
2.194631e+003,6.006842e+001
2.196560e+003,6.029560e+001
2.198488e+003,6.031288e+001
2.200417e+003,6.002678e+001
2.202345e+003,5.988346e+001
2.204274e+003,6.009100e+001
2.206202e+003,6.021828e+001
2.208131e+003,6.018200e+001
2.210059e+003,6.019509e+001
2.211988e+003,6.002280e+001
2.213916e+003,5.987131e+001
2.215845e+003,5.978961e+001
2.217773e+003,5.986003e+001
2.219702e+003,5.976972e+001
2.221630e+003,5.982235e+001
2.223559e+003,5.995793e+001
2.225487e+003,5.985089e+001
2.227416e+003,5.971173e+001
2.229344e+003,5.988522e+001
2.231273e+003,6.004033e+001
2.233201e+003,5.983160e+001
2.235130e+003,5.963535e+001
2.237058e+003,5.968219e+001
2.238987e+003,5.965086e+001
2.240915e+003,5.962703e+001
2.242844e+003,5.977412e+001
2.244772e+003,5.985336e+001
2.246701e+003,5.965204e+001
2.248629e+003,5.944773e+001
2.250558e+003,5.951701e+001
2.252486e+003,5.942857e+001
2.254415e+003,5.932153e+001
2.256343e+003,5.943415e+001
2.258272e+003,5.946332e+001
2.260200e+003,5.923315e+001
2.262129e+003,5.912710e+001
2.264057e+003,5.927328e+001
2.265986e+003,5.914068e+001
2.267914e+003,5.917872e+001
2.269843e+003,5.926656e+001
2.271771e+003,5.908786e+001
2.273700e+003,5.889474e+001
2.275628e+003,5.899139e+001
2.277557e+003,5.922655e+001
2.279485e+003,5.926522e+001
2.281414e+003,5.929458e+001
2.283342e+003,5.938075e+001
2.285271e+003,5.914024e+001
2.287199e+003,5.879587e+001
2.289128e+003,5.880758e+001
2.291056e+003,5.897554e+001
2.292985e+003,5.881964e+001
2.294913e+003,5.859624e+001
2.296842e+003,5.843048e+001
2.298770e+003,5.813167e+001
2.300699e+003,5.799022e+001
2.302627e+003,5.802207e+001
2.304556e+003,5.800341e+001
2.306484e+003,5.745473e+001
2.308413e+003,5.701062e+001
2.310341e+003,5.681728e+001
2.312270e+003,5.653819e+001
2.314198e+003,5.636808e+001
2.316127e+003,5.615583e+001
2.318055e+003,5.581088e+001
2.319984e+003,5.495520e+001
2.321912e+003,5.429215e+001
2.323841e+003,5.417221e+001
2.325769e+003,5.408747e+001
2.327698e+003,5.385226e+001
2.329626e+003,5.379876e+001
2.331555e+003,5.380333e+001
2.333483e+003,5.321276e+001
2.335412e+003,5.329023e+001
2.337340e+003,5.374979e+001
2.339269e+003,5.347395e+001
2.341197e+003,5.324231e+001
2.343126e+003,5.350806e+001
2.345054e+003,5.396339e+001
2.346983e+003,5.466462e+001
2.348911e+003,5.458675e+001
2.350840e+003,5.362284e+001
2.352768e+003,5.248203e+001
2.354697e+003,5.097993e+001
2.356625e+003,4.992204e+001
2.358554e+003,4.989948e+001
2.360482e+003,5.007912e+001
2.362411e+003,5.126659e+001
2.364339e+003,5.230161e+001
2.366268e+003,5.220238e+001
2.368196e+003,5.275313e+001
2.370125e+003,5.384892e+001
2.372053e+003,5.482380e+001
2.373982e+003,5.556565e+001
2.375910e+003,5.670863e+001
2.377839e+003,5.723920e+001
2.379767e+003,5.728130e+001
2.381696e+003,5.767620e+001
2.383624e+003,5.813848e+001
2.385553e+003,5.833625e+001
2.387481e+003,5.844468e+001
2.389410e+003,5.863258e+001
2.391338e+003,5.851739e+001
2.393267e+003,5.814368e+001
2.395195e+003,5.826017e+001
2.397124e+003,5.851168e+001
2.399052e+003,5.841929e+001
2.400981e+003,5.830762e+001
2.402909e+003,5.832317e+001
2.404838e+003,5.825027e+001
2.406766e+003,5.807576e+001
2.408695e+003,5.819645e+001
2.410623e+003,5.840997e+001
2.412552e+003,5.836636e+001
2.414480e+003,5.819717e+001
2.416409e+003,5.812976e+001
2.418337e+003,5.811419e+001
2.420266e+003,5.807315e+001
2.422194e+003,5.824670e+001
2.424123e+003,5.828007e+001
2.426051e+003,5.814908e+001
2.427980e+003,5.793894e+001
2.429908e+003,5.791059e+001
2.431837e+003,5.791043e+001
2.433765e+003,5.792906e+001
2.435694e+003,5.814533e+001
2.437622e+003,5.816372e+001
2.439551e+003,5.798445e+001
2.441479e+003,5.789799e+001
2.443408e+003,5.795647e+001
2.445336e+003,5.797012e+001
2.447265e+003,5.778503e+001
2.449193e+003,5.787820e+001
2.451122e+003,5.783115e+001
2.453050e+003,5.758814e+001
2.454979e+003,5.750551e+001
2.456907e+003,5.763890e+001
2.458836e+003,5.775154e+001
2.460764e+003,5.764814e+001
2.462693e+003,5.765197e+001
2.464621e+003,5.760407e+001
2.466550e+003,5.749989e+001
2.468478e+003,5.766943e+001
2.470406e+003,5.775065e+001
2.472335e+003,5.762210e+001
2.474264e+003,5.740096e+001
2.476192e+003,5.744789e+001
2.478121e+003,5.752893e+001
2.480049e+003,5.740741e+001
2.481978e+003,5.751453e+001
2.483906e+003,5.762524e+001
2.485834e+003,5.742027e+001
2.487763e+003,5.723165e+001
2.489692e+003,5.736679e+001
2.491620e+003,5.736243e+001
2.493549e+003,5.719095e+001
2.495477e+003,5.724264e+001
2.497406e+003,5.721787e+001
2.499334e+003,5.707366e+001
2.501262e+003,5.681488e+001
2.503191e+003,5.682136e+001
2.505120e+003,5.680192e+001
2.507048e+003,5.666249e+001
2.508977e+003,5.666770e+001
2.510905e+003,5.658519e+001
2.512833e+003,5.630886e+001
2.514762e+003,5.626233e+001
2.516690e+003,5.652252e+001
2.518619e+003,5.665607e+001
2.520548e+003,5.661220e+001
2.522476e+003,5.675218e+001
2.524405e+003,5.656160e+001
2.526333e+003,5.639091e+001
2.528261e+003,5.658702e+001
2.530190e+003,5.682996e+001
2.532119e+003,5.676312e+001
2.534047e+003,5.662014e+001
2.535976e+003,5.674869e+001
2.537904e+003,5.673344e+001
2.539833e+003,5.667130e+001
2.541761e+003,5.678235e+001
2.543689e+003,5.677589e+001
2.545618e+003,5.658910e+001
2.547547e+003,5.637716e+001
2.549475e+003,5.651728e+001
2.551404e+003,5.658434e+001
2.553332e+003,5.655240e+001
2.555260e+003,5.660546e+001
2.557189e+003,5.658928e+001
2.559117e+003,5.639820e+001
2.561046e+003,5.623472e+001
2.562975e+003,5.632706e+001
2.564903e+003,5.637785e+001
2.566832e+003,5.639175e+001
2.568760e+003,5.634813e+001
2.570688e+003,5.629975e+001
2.572617e+003,5.620290e+001
2.574545e+003,5.613348e+001
2.576474e+003,5.622190e+001
2.578403e+003,5.617852e+001
2.580331e+003,5.613545e+001
2.582260e+003,5.622756e+001
2.584188e+003,5.614095e+001
2.586116e+003,5.592324e+001
2.588045e+003,5.596077e+001
2.589973e+003,5.625028e+001
2.591902e+003,5.609481e+001
2.593831e+003,5.591781e+001
2.595759e+003,5.595460e+001
2.597688e+003,5.592159e+001
2.599616e+003,5.592619e+001
2.601544e+003,5.597867e+001
2.603473e+003,5.603680e+001
2.605401e+003,5.568127e+001
2.607330e+003,5.552304e+001
2.609259e+003,5.579521e+001
2.611187e+003,5.583349e+001
2.613115e+003,5.564227e+001
2.615044e+003,5.556337e+001
2.616972e+003,5.556515e+001
2.618901e+003,5.534757e+001
2.620830e+003,5.535096e+001
2.622758e+003,5.555455e+001
2.624687e+003,5.546436e+001
2.626615e+003,5.547278e+001
2.628543e+003,5.570850e+001
2.630472e+003,5.569752e+001
2.632400e+003,5.531437e+001
2.634329e+003,5.526176e+001
2.636258e+003,5.552340e+001
2.638186e+003,5.538874e+001
2.640115e+003,5.521471e+001
2.642043e+003,5.524734e+001
2.643971e+003,5.532806e+001
2.645900e+003,5.523568e+001
2.647828e+003,5.530426e+001
2.649757e+003,5.535990e+001
2.651686e+003,5.515985e+001
2.653614e+003,5.505603e+001
2.655542e+003,5.500658e+001
2.657471e+003,5.489251e+001
2.659399e+003,5.475797e+001
2.661328e+003,5.498429e+001
2.663256e+003,5.526688e+001
2.665185e+003,5.508158e+001
2.667114e+003,5.483271e+001
2.669042e+003,5.498555e+001
2.670970e+003,5.506121e+001
2.672899e+003,5.496456e+001
2.674827e+003,5.480853e+001
2.676756e+003,5.479918e+001
2.678684e+003,5.467952e+001
2.680613e+003,5.459875e+001
2.682542e+003,5.470958e+001
2.684470e+003,5.483173e+001
2.686398e+003,5.470108e+001
2.688327e+003,5.468573e+001
2.690255e+003,5.463546e+001
2.692184e+003,5.440724e+001
2.694112e+003,5.438788e+001
2.696041e+003,5.444303e+001
2.697969e+003,5.454115e+001
2.699898e+003,5.446589e+001
2.701826e+003,5.434218e+001
2.703755e+003,5.425489e+001
2.705683e+003,5.400301e+001
2.707612e+003,5.408226e+001
2.709540e+003,5.437889e+001
2.711469e+003,5.434859e+001
2.713397e+003,5.405386e+001
2.715326e+003,5.412161e+001
2.717254e+003,5.420317e+001
2.719183e+003,5.406078e+001
2.721111e+003,5.418919e+001
2.723040e+003,5.427188e+001
2.724969e+003,5.397065e+001
2.726897e+003,5.390364e+001
2.728825e+003,5.401654e+001
2.730754e+003,5.405583e+001
2.732682e+003,5.402880e+001
2.734611e+003,5.412525e+001
2.736539e+003,5.415167e+001
2.738468e+003,5.396437e+001
2.740396e+003,5.391074e+001
2.742325e+003,5.397328e+001
2.744253e+003,5.400024e+001
2.746182e+003,5.390933e+001
2.748110e+003,5.400576e+001
2.750039e+003,5.380735e+001
2.751967e+003,5.346351e+001
2.753896e+003,5.347787e+001
2.755824e+003,5.364328e+001
2.757753e+003,5.379192e+001
2.759681e+003,5.363289e+001
2.761610e+003,5.342231e+001
2.763538e+003,5.324365e+001
2.765467e+003,5.320277e+001
2.767395e+003,5.341815e+001
2.769324e+003,5.351393e+001
2.771252e+003,5.332022e+001
2.773181e+003,5.314379e+001
2.775109e+003,5.323226e+001
2.777038e+003,5.311330e+001
2.778966e+003,5.305069e+001
2.780895e+003,5.334441e+001
2.782823e+003,5.333649e+001
2.784752e+003,5.323172e+001
2.786680e+003,5.302009e+001
2.788609e+003,5.302334e+001
2.790537e+003,5.300092e+001
2.792466e+003,5.289739e+001
2.794394e+003,5.305818e+001
2.796323e+003,5.320339e+001
2.798251e+003,5.298901e+001
2.800180e+003,5.277714e+001
2.802108e+003,5.282051e+001
2.804037e+003,5.279862e+001
2.805965e+003,5.279113e+001
2.807894e+003,5.296196e+001
2.809822e+003,5.278300e+001
2.811751e+003,5.248499e+001
2.813679e+003,5.256414e+001
2.815608e+003,5.286418e+001
2.817536e+003,5.284977e+001
2.819465e+003,5.263769e+001
2.821393e+003,5.261191e+001
2.823322e+003,5.259494e+001
2.825250e+003,5.247510e+001
2.827179e+003,5.248615e+001
2.829107e+003,5.259931e+001
2.831036e+003,5.250095e+001
2.832964e+003,5.222884e+001
2.834893e+003,5.222800e+001
2.836821e+003,5.219242e+001
2.838750e+003,5.203171e+001
2.840678e+003,5.207964e+001
2.842607e+003,5.225611e+001
2.844535e+003,5.207458e+001
2.846464e+003,5.181782e+001
2.848392e+003,5.191899e+001
2.850321e+003,5.183771e+001
2.852249e+003,5.179288e+001
2.854178e+003,5.192868e+001
2.856106e+003,5.193721e+001
2.858035e+003,5.162743e+001
2.859963e+003,5.127829e+001
2.861892e+003,5.145852e+001
2.863820e+003,5.164323e+001
2.865749e+003,5.181095e+001
2.867677e+003,5.190210e+001
2.869606e+003,5.175533e+001
2.871534e+003,5.144806e+001
2.873463e+003,5.142747e+001
2.875391e+003,5.170763e+001
2.877320e+003,5.159507e+001
2.879248e+003,5.141299e+001
2.881177e+003,5.148932e+001
2.883105e+003,5.129269e+001
2.885034e+003,5.114693e+001
2.886962e+003,5.121975e+001
2.888891e+003,5.127273e+001
2.890819e+003,5.115186e+001
2.892748e+003,5.095209e+001
2.894676e+003,5.085715e+001
2.896605e+003,5.073239e+001
2.898533e+003,5.074176e+001
2.900462e+003,5.093269e+001
2.902390e+003,5.104811e+001
2.904319e+003,5.080853e+001
2.906247e+003,5.059338e+001
2.908176e+003,5.062822e+001
2.910104e+003,5.054118e+001
2.912033e+003,5.041420e+001
2.913961e+003,5.052360e+001
2.915890e+003,5.068732e+001
2.917818e+003,5.047099e+001
2.919747e+003,5.042710e+001
2.921675e+003,5.067716e+001
2.923604e+003,5.068774e+001
2.925532e+003,5.051008e+001
2.927461e+003,5.052990e+001
2.929389e+003,5.069599e+001
2.931318e+003,5.043167e+001
2.933246e+003,5.026994e+001
2.935175e+003,5.050053e+001
2.937103e+003,5.067388e+001
2.939032e+003,5.052806e+001
2.940960e+003,5.037500e+001
2.942889e+003,5.022097e+001
2.944817e+003,4.999586e+001
2.946746e+003,5.005457e+001
2.948674e+003,5.037883e+001
2.950603e+003,5.012539e+001
2.952531e+003,4.980013e+001
2.954460e+003,4.995192e+001
2.956388e+003,4.996986e+001
2.958317e+003,4.978980e+001
2.960245e+003,4.981921e+001
2.962174e+003,5.007122e+001
2.964102e+003,4.997448e+001
2.966031e+003,4.986679e+001
2.967959e+003,4.978815e+001
2.969888e+003,4.967316e+001
2.971816e+003,4.966805e+001
2.973745e+003,4.989714e+001
2.975673e+003,4.996093e+001
2.977602e+003,4.943371e+001
2.979530e+003,4.928912e+001
2.981459e+003,4.952975e+001
2.983387e+003,4.974841e+001
2.985316e+003,4.961267e+001
2.987244e+003,4.955461e+001
2.989173e+003,4.951381e+001
2.991101e+003,4.928073e+001
2.993030e+003,4.934347e+001
2.994958e+003,4.947265e+001
2.996887e+003,4.939793e+001
2.998815e+003,4.944431e+001
3.000744e+003,4.955193e+001
3.002672e+003,4.929250e+001
3.004601e+003,4.907444e+001
3.006529e+003,4.931607e+001
3.008458e+003,4.938939e+001
3.010386e+003,4.920019e+001
3.012315e+003,4.918183e+001
3.014243e+003,4.914423e+001
3.016172e+003,4.902928e+001
3.018100e+003,4.891092e+001
3.020029e+003,4.902262e+001
3.021957e+003,4.898536e+001
3.023886e+003,4.881198e+001
3.025814e+003,4.883934e+001
3.027743e+003,4.895800e+001
3.029671e+003,4.891546e+001
3.031600e+003,4.891278e+001
3.033528e+003,4.912967e+001
3.035457e+003,4.907977e+001
3.037385e+003,4.860168e+001
3.039314e+003,4.821382e+001
3.041242e+003,4.826906e+001
3.043171e+003,4.853177e+001
3.045099e+003,4.856934e+001
3.047028e+003,4.857110e+001
3.048956e+003,4.856137e+001
3.050885e+003,4.834308e+001
3.052813e+003,4.818945e+001
3.054742e+003,4.830164e+001
3.056670e+003,4.836271e+001
3.058599e+003,4.815745e+001
3.060527e+003,4.808351e+001
3.062456e+003,4.791555e+001
3.064384e+003,4.778458e+001
3.066313e+003,4.809561e+001
3.068241e+003,4.839046e+001
3.070170e+003,4.820841e+001
3.072098e+003,4.793992e+001
3.074027e+003,4.801471e+001
3.075955e+003,4.788766e+001
3.077884e+003,4.750870e+001
3.079812e+003,4.763582e+001
3.081741e+003,4.781347e+001
3.083669e+003,4.765068e+001
3.085598e+003,4.741716e+001
3.087526e+003,4.745129e+001
3.089455e+003,4.735434e+001
3.091383e+003,4.713011e+001
3.093312e+003,4.734909e+001
3.095240e+003,4.762811e+001
3.097169e+003,4.726284e+001
3.099097e+003,4.688137e+001
3.101026e+003,4.721148e+001
3.102954e+003,4.736486e+001
3.104883e+003,4.723714e+001
3.106811e+003,4.728171e+001
3.108740e+003,4.715351e+001
3.110668e+003,4.692086e+001
3.112597e+003,4.685971e+001
3.114525e+003,4.696753e+001
3.116454e+003,4.694719e+001
3.118382e+003,4.676746e+001
3.120311e+003,4.687277e+001
3.122239e+003,4.690118e+001
3.124167e+003,4.673621e+001
3.126096e+003,4.676381e+001
3.128025e+003,4.685135e+001
3.129953e+003,4.664503e+001
3.131882e+003,4.642610e+001
3.133810e+003,4.646871e+001
3.135739e+003,4.631042e+001
3.137667e+003,4.615227e+001
3.139595e+003,4.628901e+001
3.141524e+003,4.611180e+001
3.143453e+003,4.584093e+001
3.145381e+003,4.580389e+001
3.147310e+003,4.601113e+001
3.149238e+003,4.593689e+001
3.151167e+003,4.593658e+001
3.153095e+003,4.606602e+001
3.155023e+003,4.603319e+001
3.156952e+003,4.581150e+001
3.158881e+003,4.557835e+001
3.160809e+003,4.563282e+001
3.162738e+003,4.566860e+001
3.164666e+003,4.562630e+001
3.166594e+003,4.553479e+001
3.168523e+003,4.547330e+001
3.170452e+003,4.546129e+001
3.172380e+003,4.532389e+001
3.174309e+003,4.525877e+001
3.176237e+003,4.520089e+001
3.178166e+003,4.533510e+001
3.180094e+003,4.534575e+001
3.182022e+003,4.511298e+001
3.183951e+003,4.497127e+001
3.185880e+003,4.489895e+001
3.187808e+003,4.512167e+001
3.189737e+003,4.505823e+001
3.191665e+003,4.472192e+001
3.193594e+003,4.457712e+001
3.195522e+003,4.434147e+001
3.197450e+003,4.444099e+001
3.199379e+003,4.468523e+001
3.201308e+003,4.481289e+001
3.203236e+003,4.454501e+001
3.205165e+003,4.437940e+001
3.207093e+003,4.436356e+001
3.209021e+003,4.436063e+001
3.210950e+003,4.442043e+001
3.212878e+003,4.450936e+001
3.214807e+003,4.451932e+001
3.216736e+003,4.417483e+001
3.218664e+003,4.406454e+001
3.220593e+003,4.411770e+001
3.222521e+003,4.384374e+001
3.224449e+003,4.356786e+001
3.226378e+003,4.350776e+001
3.228306e+003,4.359908e+001
3.230235e+003,4.353725e+001
3.232164e+003,4.351211e+001
3.234092e+003,4.360906e+001
3.236021e+003,4.359462e+001
3.237949e+003,4.360390e+001
3.239877e+003,4.339570e+001
3.241806e+003,4.304069e+001
3.243734e+003,4.289507e+001
3.245663e+003,4.313866e+001
3.247592e+003,4.328230e+001
3.249520e+003,4.288953e+001
3.251448e+003,4.275358e+001
3.253377e+003,4.291481e+001
3.255305e+003,4.289192e+001
3.257234e+003,4.280460e+001
3.259162e+003,4.301242e+001
3.261091e+003,4.308508e+001
3.263020e+003,4.275610e+001
3.264948e+003,4.268855e+001
3.266876e+003,4.267312e+001
3.268805e+003,4.258153e+001
3.270733e+003,4.248359e+001
3.272662e+003,4.269981e+001
3.274591e+003,4.271836e+001
3.276519e+003,4.230683e+001
3.278448e+003,4.210855e+001
3.280376e+003,4.208035e+001
3.282304e+003,4.213057e+001
3.284233e+003,4.211971e+001
3.286161e+003,4.203643e+001
3.288090e+003,4.186312e+001
3.290019e+003,4.152964e+001
3.291947e+003,4.166883e+001
3.293875e+003,4.191504e+001
3.295804e+003,4.173431e+001
3.297732e+003,4.148804e+001
3.299661e+003,4.144099e+001
3.301589e+003,4.156719e+001
3.303518e+003,4.127832e+001
3.305447e+003,4.136865e+001
3.307375e+003,4.163923e+001
3.309303e+003,4.163680e+001
3.311232e+003,4.143311e+001
3.313160e+003,4.125179e+001
3.315089e+003,4.125867e+001
3.317017e+003,4.108077e+001
3.318946e+003,4.119857e+001
3.320875e+003,4.119125e+001
3.322803e+003,4.080210e+001
3.324731e+003,4.067322e+001
3.326660e+003,4.072462e+001
3.328588e+003,4.068105e+001
3.330517e+003,4.044632e+001
3.332445e+003,4.063221e+001
3.334374e+003,4.064195e+001
3.336302e+003,4.027234e+001
3.338231e+003,4.002713e+001
3.340159e+003,4.015744e+001
3.342088e+003,4.031499e+001
3.344016e+003,4.018880e+001
3.345945e+003,4.040097e+001
3.347873e+003,4.035018e+001
3.349802e+003,3.975123e+001
3.351730e+003,3.947955e+001
3.353659e+003,3.936736e+001
3.355587e+003,3.938984e+001
3.357516e+003,3.938080e+001
3.359444e+003,3.946061e+001
3.361373e+003,3.951437e+001
3.363302e+003,3.937620e+001
3.365230e+003,3.936602e+001
3.367158e+003,3.942825e+001
3.369087e+003,3.916339e+001
3.371015e+003,3.885086e+001
3.372944e+003,3.893000e+001
3.374872e+003,3.885504e+001
3.376801e+003,3.865575e+001
3.378729e+003,3.886478e+001
3.380658e+003,3.890005e+001
3.382586e+003,3.852992e+001
3.384515e+003,3.825665e+001
3.386443e+003,3.836922e+001
3.388372e+003,3.830293e+001
3.390300e+003,3.814504e+001
3.392229e+003,3.839336e+001
3.394157e+003,3.825009e+001
3.396086e+003,3.800634e+001
3.398014e+003,3.797756e+001
3.399943e+003,3.785136e+001
3.401871e+003,3.780796e+001
3.403800e+003,3.786308e+001
3.405728e+003,3.795800e+001
3.407657e+003,3.789858e+001
3.409585e+003,3.757575e+001
3.411514e+003,3.726540e+001
3.413442e+003,3.750764e+001
3.415371e+003,3.779900e+001
3.417299e+003,3.755585e+001
3.419228e+003,3.761700e+001
3.421156e+003,3.812861e+001
3.423085e+003,3.794101e+001
3.425013e+003,3.758681e+001
3.426942e+003,3.766656e+001
3.428870e+003,3.754774e+001
3.430799e+003,3.721524e+001
3.432727e+003,3.747115e+001
3.434656e+003,3.737579e+001
3.436584e+003,3.692492e+001
3.438513e+003,3.702294e+001
3.440441e+003,3.722618e+001
3.442370e+003,3.729511e+001
3.444298e+003,3.690918e+001
3.446227e+003,3.715652e+001
3.448155e+003,3.746109e+001
3.450084e+003,3.712558e+001
3.452012e+003,3.717207e+001
3.453941e+003,3.729449e+001
3.455869e+003,3.727330e+001
3.457798e+003,3.675481e+001
3.459726e+003,3.657502e+001
3.461655e+003,3.706506e+001
3.463583e+003,3.736098e+001
3.465512e+003,3.718546e+001
3.467440e+003,3.720591e+001
3.469369e+003,3.700362e+001
3.471297e+003,3.687349e+001
3.473226e+003,3.740913e+001
3.475154e+003,3.776824e+001
3.477083e+003,3.731243e+001
3.479011e+003,3.701674e+001
3.480940e+003,3.717042e+001
3.482868e+003,3.732188e+001
3.484797e+003,3.684528e+001
3.486725e+003,3.718027e+001
3.488654e+003,3.724694e+001
3.490582e+003,3.684767e+001
3.492511e+003,3.695819e+001
3.494439e+003,3.693769e+001
3.496368e+003,3.717943e+001
3.498296e+003,3.732253e+001
3.500225e+003,3.700291e+001
3.502153e+003,3.717725e+001
3.504082e+003,3.780606e+001
3.506010e+003,3.761320e+001
3.507939e+003,3.736214e+001
3.509867e+003,3.780370e+001
3.511796e+003,3.759459e+001
3.513724e+003,3.743502e+001
3.515653e+003,3.710068e+001
3.517581e+003,3.679282e+001
3.519510e+003,3.695080e+001
3.521438e+003,3.687860e+001
3.523367e+003,3.714900e+001
3.525295e+003,3.735336e+001
3.527224e+003,3.739858e+001
3.529152e+003,3.748894e+001
3.531081e+003,3.739466e+001
3.533009e+003,3.722392e+001
3.534938e+003,3.678179e+001
3.536866e+003,3.718391e+001
3.538795e+003,3.717088e+001
3.540723e+003,3.696626e+001
3.542652e+003,3.664342e+001
3.544580e+003,3.731915e+001
3.546509e+003,3.839718e+001
3.548437e+003,3.794440e+001
3.550366e+003,3.723555e+001
3.552294e+003,3.799201e+001
3.554223e+003,3.799054e+001
3.556151e+003,3.739890e+001
3.558080e+003,3.722334e+001
3.560008e+003,3.744950e+001
3.561937e+003,3.695725e+001
3.563865e+003,3.633025e+001
3.565794e+003,3.735519e+001
3.567722e+003,3.989604e+001
3.569651e+003,3.891700e+001
3.571579e+003,3.777558e+001
3.573508e+003,3.768549e+001
3.575436e+003,3.770356e+001
3.577365e+003,3.752503e+001
3.579293e+003,3.760803e+001
3.581222e+003,3.764298e+001
3.583150e+003,3.756357e+001
3.585079e+003,3.693405e+001
3.587007e+003,3.843168e+001
3.588936e+003,3.947458e+001
3.590864e+003,3.797494e+001
3.592793e+003,3.746553e+001
3.594721e+003,3.779883e+001
3.596650e+003,3.776318e+001
3.598578e+003,3.777297e+001
3.600507e+003,3.885993e+001
3.602435e+003,3.862220e+001
3.604364e+003,3.750890e+001
3.606292e+003,3.735658e+001
3.608221e+003,3.841633e+001
3.610149e+003,3.808413e+001
3.612078e+003,3.818885e+001
3.614006e+003,3.951498e+001
3.615935e+003,3.788496e+001
3.617863e+003,3.829044e+001
3.619792e+003,4.068008e+001
3.621720e+003,3.929942e+001
3.623649e+003,3.779648e+001
3.625577e+003,3.685869e+001
3.627506e+003,3.631881e+001
3.629434e+003,4.095452e+001
3.631363e+003,3.985516e+001
3.633291e+003,3.879981e+001
3.635220e+003,3.858662e+001
3.637148e+003,3.823429e+001
3.639077e+003,3.873278e+001
3.641005e+003,3.886606e+001
3.642934e+003,3.870389e+001
3.644862e+003,3.705820e+001
3.646791e+003,3.686817e+001
3.648719e+003,3.939038e+001
3.650648e+003,4.251696e+001
3.652576e+003,4.066789e+001
3.654505e+003,3.880257e+001
3.656433e+003,4.008156e+001
3.658362e+003,3.985644e+001
3.660290e+003,3.934201e+001
3.662219e+003,3.884829e+001
3.664147e+003,3.862772e+001
3.666076e+003,3.807728e+001
3.668004e+003,3.702099e+001
3.669933e+003,3.961697e+001
3.671861e+003,3.970060e+001
3.673790e+003,3.748563e+001
3.675718e+003,4.192742e+001
3.677647e+003,4.132945e+001
3.679575e+003,4.050291e+001
3.681504e+003,3.949628e+001
3.683432e+003,3.895210e+001
3.685361e+003,3.819601e+001
3.687289e+003,3.759839e+001
3.689218e+003,4.005745e+001
3.691146e+003,4.157160e+001
3.693075e+003,4.057803e+001
3.695003e+003,3.967413e+001
3.696932e+003,3.959829e+001
3.698860e+003,3.882681e+001
3.700789e+003,3.926734e+001
3.702717e+003,4.055745e+001
3.704646e+003,3.997150e+001
3.706574e+003,3.884816e+001
3.708503e+003,3.785616e+001
3.710431e+003,3.963117e+001
3.712360e+003,4.295956e+001
3.714288e+003,4.168029e+001
3.716217e+003,3.950477e+001
3.718145e+003,3.897239e+001
3.720074e+003,3.875812e+001
3.722002e+003,3.918629e+001
3.723931e+003,3.942273e+001
3.725859e+003,4.002119e+001
3.727788e+003,3.996632e+001
3.729716e+003,3.799066e+001
3.731645e+003,3.827834e+001
3.733573e+003,3.867362e+001
3.735502e+003,4.064589e+001
3.737430e+003,4.128355e+001
3.739359e+003,3.996424e+001
3.741287e+003,3.880792e+001
3.743216e+003,3.780521e+001
3.745144e+003,4.195742e+001
3.747073e+003,3.948168e+001
3.749001e+003,3.881094e+001
3.750930e+003,4.317767e+001
3.752858e+003,4.385036e+001
3.754787e+003,4.089120e+001
3.756715e+003,3.956703e+001
3.758644e+003,4.078590e+001
3.760572e+003,4.211496e+001
3.762500e+003,4.043801e+001
3.764429e+003,4.016881e+001
3.766358e+003,4.094394e+001
3.768286e+003,3.990067e+001
3.770215e+003,4.178168e+001
3.772143e+003,4.149893e+001
3.774072e+003,4.056505e+001
3.776000e+003,3.985963e+001
3.777928e+003,3.952916e+001
3.779857e+003,4.129451e+001
3.781786e+003,4.049846e+001
3.783714e+003,3.991077e+001
3.785643e+003,4.106846e+001
3.787571e+003,4.081218e+001
3.789500e+003,4.035011e+001
3.791428e+003,4.015475e+001
3.793356e+003,3.954889e+001
3.795285e+003,3.944775e+001
3.797214e+003,4.080062e+001
3.799142e+003,3.928753e+001
3.801071e+003,4.130433e+001
3.802999e+003,4.233806e+001
3.804927e+003,3.970413e+001
3.806856e+003,4.177232e+001
3.808785e+003,4.224000e+001
3.810713e+003,4.079822e+001
3.812642e+003,3.953922e+001
3.814570e+003,3.835951e+001
3.816499e+003,4.076728e+001
3.818427e+003,3.930164e+001
3.820355e+003,4.073518e+001
3.822284e+003,4.394440e+001
3.824213e+003,4.092036e+001
3.826141e+003,4.083452e+001
3.828070e+003,4.087321e+001
3.829998e+003,3.950243e+001
3.831927e+003,4.035252e+001
3.833855e+003,4.023328e+001
3.835783e+003,3.936932e+001
3.837712e+003,4.017960e+001
3.839641e+003,4.235075e+001
3.841569e+003,4.115240e+001
3.843498e+003,4.091072e+001
3.845426e+003,4.124218e+001
3.847354e+003,3.972717e+001
3.849283e+003,3.832210e+001
3.851211e+003,3.677818e+001
3.853140e+003,4.156817e+001
3.855069e+003,4.289677e+001
3.856997e+003,4.159270e+001
3.858926e+003,4.043452e+001
3.860854e+003,3.944127e+001
3.862782e+003,3.933857e+001
3.864711e+003,4.104607e+001
3.866639e+003,4.040643e+001
3.868568e+003,3.918459e+001
3.870497e+003,4.260648e+001
3.872425e+003,4.087761e+001
3.874354e+003,4.154979e+001
3.876282e+003,4.024827e+001
3.878210e+003,3.858913e+001
3.880139e+003,4.046717e+001
3.882067e+003,4.091214e+001
3.883996e+003,3.914083e+001
3.885925e+003,4.150441e+001
3.887853e+003,3.984655e+001
3.889781e+003,3.844031e+001
3.891710e+003,4.099499e+001
3.893638e+003,4.111865e+001
3.895567e+003,3.972422e+001
3.897495e+003,3.892101e+001
3.899424e+003,3.982359e+001
3.901353e+003,3.959931e+001
3.903281e+003,4.026846e+001
3.905209e+003,4.175288e+001
3.907138e+003,4.081485e+001
3.909066e+003,3.976276e+001
3.910995e+003,3.942571e+001
3.912924e+003,3.937330e+001
3.914852e+003,3.880374e+001
3.916781e+003,3.984819e+001
3.918709e+003,4.056329e+001
3.920637e+003,4.016296e+001
3.922566e+003,3.910745e+001
3.924494e+003,3.955737e+001
3.926423e+003,3.968068e+001
3.928352e+003,3.888999e+001
3.930280e+003,3.897205e+001
3.932208e+003,3.973485e+001
3.934137e+003,3.960082e+001
3.936065e+003,3.914929e+001
3.937994e+003,3.947253e+001
3.939922e+003,3.920515e+001
3.941851e+003,3.936102e+001
3.943780e+003,3.991845e+001
3.945708e+003,3.922627e+001
3.947636e+003,3.895242e+001
3.949565e+003,3.970274e+001
3.951493e+003,4.014430e+001
3.953422e+003,4.007203e+001
3.955350e+003,3.978990e+001
3.957279e+003,3.981570e+001
3.959208e+003,3.943303e+001
3.961136e+003,3.925555e+001
3.963064e+003,3.964464e+001
3.964993e+003,3.925119e+001
3.966921e+003,3.903779e+001
3.968850e+003,3.911885e+001
3.970778e+003,3.888837e+001
3.972707e+003,3.889008e+001
3.974635e+003,3.943713e+001
3.976564e+003,3.978816e+001
3.978492e+003,3.944101e+001
3.980421e+003,3.934793e+001
3.982349e+003,3.942104e+001
3.984278e+003,3.931892e+001
3.986206e+003,3.932130e+001
3.988135e+003,3.898721e+001
3.990063e+003,3.908931e+001
3.991992e+003,3.921758e+001
3.993920e+003,3.889190e+001
3.995849e+003,3.871387e+001
3.997777e+003,3.874625e+001
3.999706e+003,3.905874e+001
