3.991992e+002,4.976561e+001
4.011277e+002,5.685680e+001
4.030562e+002,6.583318e+001
4.049847e+002,7.459827e+001
4.069132e+002,7.553342e+001
4.088417e+002,6.907429e+001
4.107702e+002,6.375766e+001
4.126987e+002,5.983450e+001
4.146272e+002,5.771047e+001
4.165557e+002,5.574945e+001
4.184842e+002,5.378442e+001
4.204127e+002,5.107162e+001
4.223412e+002,5.039390e+001
4.242697e+002,4.913726e+001
4.261982e+002,4.683359e+001
4.281267e+002,4.558085e+001
4.300552e+002,4.474655e+001
4.319837e+002,4.332849e+001
4.339122e+002,4.209170e+001
4.358407e+002,4.026426e+001
4.377692e+002,3.866231e+001
4.396977e+002,3.734759e+001
4.416262e+002,3.630470e+001
4.435547e+002,3.490646e+001
4.454832e+002,3.341218e+001
4.474117e+002,3.169426e+001
4.493401e+002,3.040617e+001
4.512686e+002,2.891657e+001
4.531971e+002,2.719169e+001
4.551256e+002,2.634284e+001
4.570541e+002,2.583366e+001
4.589826e+002,2.503609e+001
4.609111e+002,2.510387e+001
4.628396e+002,2.565388e+001
4.647681e+002,2.662767e+001
4.666966e+002,2.739683e+001
4.686251e+002,2.793562e+001
4.705536e+002,2.848018e+001
4.724821e+002,2.952747e+001
4.744106e+002,2.966232e+001
4.763391e+002,2.995048e+001
4.782676e+002,3.058500e+001
4.801961e+002,3.137288e+001
4.821246e+002,3.227955e+001
4.840531e+002,3.328077e+001
4.859816e+002,3.372016e+001
4.879101e+002,3.420786e+001
4.898386e+002,3.495974e+001
4.917671e+002,3.609423e+001
4.936956e+002,3.698561e+001
4.956241e+002,3.772843e+001
4.975526e+002,3.838232e+001
4.994811e+002,3.916087e+001
5.014096e+002,4.007531e+001
5.033381e+002,4.035149e+001
5.052666e+002,4.053054e+001
5.071951e+002,4.096066e+001
5.091236e+002,4.109575e+001
5.110521e+002,4.130957e+001
5.129806e+002,4.157856e+001
5.149091e+002,4.199569e+001
5.168376e+002,4.253639e+001
5.187661e+002,4.304866e+001
5.206946e+002,4.357890e+001
5.226231e+002,4.443511e+001
5.245516e+002,4.538641e+001
5.264801e+002,4.626926e+001
5.284086e+002,4.730294e+001
5.303371e+002,4.860480e+001
5.322656e+002,4.980344e+001
5.341941e+002,5.117910e+001
5.361226e+002,5.241464e+001
5.380511e+002,5.359996e+001
5.399796e+002,5.489199e+001
5.419081e+002,5.624121e+001
5.438365e+002,5.755115e+001
5.457651e+002,5.906233e+001
5.476936e+002,6.010110e+001
5.496221e+002,6.144056e+001
5.515506e+002,6.262975e+001
5.534791e+002,6.357428e+001
5.554076e+002,6.470346e+001
5.573361e+002,6.590735e+001
5.592646e+002,6.690755e+001
5.611931e+002,6.804019e+001
5.631216e+002,6.930504e+001
5.650500e+002,7.066643e+001
5.669786e+002,7.251953e+001
5.689070e+002,7.463644e+001
5.708356e+002,7.621444e+001
5.727640e+002,7.813265e+001
5.746926e+002,8.062397e+001
5.766210e+002,8.335601e+001
5.785496e+002,8.591918e+001
5.804780e+002,8.858559e+001
5.824066e+002,9.107981e+001
5.843350e+002,9.353193e+001
5.862635e+002,9.569759e+001
5.881920e+002,9.732851e+001
5.901205e+002,9.887434e+001
5.920490e+002,1.000000e+002
5.939775e+002,9.991431e+001
5.959060e+002,9.960107e+001
5.978345e+002,9.922680e+001
5.997631e+002,9.881474e+001
6.016915e+002,9.787420e+001
6.036201e+002,9.684209e+001
6.055485e+002,9.638522e+001
6.074771e+002,9.606485e+001
6.094055e+002,9.566932e+001
6.113340e+002,9.527689e+001
6.132625e+002,9.502673e+001
6.151910e+002,9.496461e+001
6.171195e+002,9.458358e+001
6.190480e+002,9.465509e+001
6.209765e+002,9.484272e+001
6.229050e+002,9.490367e+001
6.248335e+002,9.479892e+001
6.267620e+002,9.402453e+001
6.286905e+002,9.320138e+001
6.306190e+002,9.220915e+001
6.325475e+002,9.086860e+001
6.344760e+002,8.915614e+001
6.364045e+002,8.747542e+001
6.383330e+002,8.578090e+001
6.402615e+002,8.392636e+001
6.421900e+002,8.192554e+001
6.441185e+002,8.035287e+001
6.460470e+002,7.888303e+001
6.479755e+002,7.716614e+001
6.499040e+002,7.563225e+001
6.518325e+002,7.455820e+001
6.537610e+002,7.348172e+001
6.556895e+002,7.242233e+001
6.576180e+002,7.137405e+001
6.595465e+002,7.046697e+001
6.614750e+002,6.993539e+001
6.634035e+002,6.944815e+001
6.653320e+002,6.848205e+001
6.672605e+002,6.471255e+001
6.691890e+002,6.122996e+001
6.711175e+002,6.372469e+001
6.730460e+002,6.384019e+001
6.749745e+002,6.259409e+001
6.769030e+002,6.134632e+001
6.788315e+002,6.020446e+001
6.807599e+002,5.894210e+001
6.826885e+002,5.785458e+001
6.846169e+002,5.666306e+001
6.865455e+002,5.543236e+001
6.884739e+002,5.378590e+001
6.904025e+002,5.202743e+001
6.923309e+002,5.031863e+001
6.942595e+002,4.973194e+001
6.961880e+002,5.136625e+001
6.981165e+002,5.555464e+001
7.000450e+002,6.036991e+001
7.019734e+002,6.399164e+001
7.039020e+002,6.548944e+001
7.058304e+002,6.525998e+001
7.077590e+002,6.446238e+001
7.096874e+002,6.374236e+001
7.116160e+002,6.295538e+001
7.135444e+002,6.216292e+001
7.154730e+002,6.131634e+001
7.174014e+002,6.052612e+001
7.193300e+002,5.939080e+001
7.212584e+002,5.864614e+001
7.231870e+002,5.832797e+001
7.251154e+002,5.776314e+001
7.270439e+002,5.705606e+001
7.289724e+002,5.632785e+001
7.309009e+002,5.562984e+001
7.328294e+002,5.495206e+001
7.347579e+002,5.418121e+001
7.366864e+002,5.347871e+001
7.386149e+002,5.286656e+001
7.405434e+002,5.222242e+001
7.424719e+002,5.158130e+001
7.444004e+002,5.079076e+001
7.463289e+002,5.005572e+001
7.482574e+002,4.932551e+001
7.501859e+002,4.850866e+001
7.521144e+002,4.771162e+001
7.540429e+002,4.685921e+001
7.559714e+002,4.598251e+001
7.578999e+002,4.503204e+001
7.598284e+002,4.400989e+001
7.617569e+002,4.293782e+001
7.636854e+002,4.187051e+001
7.656139e+002,4.071797e+001
7.675424e+002,3.936705e+001
7.694709e+002,3.807947e+001
7.713994e+002,3.677934e+001
7.733279e+002,3.523221e+001
7.752564e+002,3.385663e+001
7.771849e+002,3.291751e+001
7.791134e+002,3.275691e+001
7.810419e+002,3.321864e+001
7.829704e+002,3.392976e+001
7.848989e+002,3.464785e+001
7.868274e+002,3.513081e+001
7.887559e+002,3.522721e+001
7.906844e+002,3.500208e+001
7.926129e+002,3.447948e+001
7.945414e+002,3.404559e+001
7.964699e+002,3.394673e+001
7.983984e+002,3.438905e+001
8.003269e+002,3.562309e+001
8.022554e+002,3.753474e+001
8.041839e+002,3.973741e+001
8.061124e+002,4.237994e+001
8.080409e+002,4.537385e+001
8.099694e+002,4.862714e+001
8.118979e+002,5.207589e+001
8.138264e+002,5.543010e+001
8.157549e+002,5.860263e+001
8.176833e+002,6.165879e+001
8.196119e+002,6.446762e+001
8.215403e+002,6.698732e+001
8.234689e+002,6.937759e+001
8.253973e+002,7.177945e+001
8.273259e+002,7.399759e+001
8.292543e+002,7.526295e+001
8.311829e+002,7.514493e+001
8.331113e+002,7.401635e+001
8.350399e+002,7.257442e+001
8.369683e+002,7.093251e+001
8.388969e+002,6.931616e+001
8.408253e+002,6.783082e+001
8.427538e+002,6.659340e+001
8.446824e+002,6.546980e+001
8.466108e+002,6.433184e+001
8.485394e+002,6.323776e+001
8.504678e+002,6.241025e+001
8.523964e+002,6.156633e+001
8.543248e+002,6.056082e+001
8.562534e+002,5.967559e+001
8.581818e+002,5.901650e+001
8.601104e+002,5.833412e+001
8.620388e+002,5.749049e+001
8.639673e+002,5.675308e+001
8.658958e+002,5.620745e+001
8.678243e+002,5.566857e+001
8.697528e+002,5.493820e+001
8.716813e+002,5.421286e+001
8.736098e+002,5.373731e+001
8.755383e+002,5.327641e+001
8.774668e+002,5.271210e+001
8.793953e+002,5.210551e+001
8.813238e+002,5.154911e+001
8.832523e+002,5.113161e+001
8.851808e+002,5.069464e+001
8.871093e+002,5.012269e+001
8.890378e+002,4.957085e+001
8.909663e+002,4.917430e+001
8.928948e+002,4.876313e+001
8.948233e+002,4.821272e+001
8.967518e+002,4.775079e+001
8.986803e+002,4.744440e+001
9.006088e+002,4.704502e+001
9.025373e+002,4.648550e+001
9.044658e+002,4.597025e+001
9.063943e+002,4.571030e+001
9.083228e+002,4.537154e+001
9.102513e+002,4.495057e+001
9.121798e+002,4.451589e+001
9.141083e+002,4.415076e+001
9.160368e+002,4.377919e+001
9.179653e+002,4.329555e+001
9.198938e+002,4.273441e+001
9.218223e+002,4.237356e+001
9.237508e+002,4.212273e+001
9.256793e+002,4.168946e+001
9.276078e+002,4.121359e+001
9.295363e+002,4.088311e+001
9.314648e+002,4.060544e+001
9.333932e+002,4.024208e+001
9.353218e+002,3.975948e+001
9.372502e+002,3.937825e+001
9.391788e+002,3.905527e+001
9.411072e+002,3.860639e+001
9.430358e+002,3.812446e+001
9.449643e+002,3.779458e+001
9.468928e+002,3.750508e+001
9.488213e+002,3.715984e+001
9.507498e+002,3.672071e+001
9.526783e+002,3.635278e+001
9.546068e+002,3.600153e+001
9.565353e+002,3.559135e+001
9.584637e+002,3.508137e+001
9.603923e+002,3.469616e+001
9.623207e+002,3.439287e+001
9.642493e+002,3.403795e+001
9.661777e+002,3.357453e+001
9.681063e+002,3.313650e+001
9.700347e+002,3.284200e+001
9.719633e+002,3.250840e+001
9.738917e+002,3.206789e+001
9.758203e+002,3.163971e+001
9.777487e+002,3.124045e+001
9.796772e+002,3.080118e+001
9.816057e+002,3.030922e+001
9.835342e+002,2.985309e+001
9.854627e+002,2.946940e+001
9.873912e+002,2.918952e+001
9.893197e+002,2.879757e+001
9.912482e+002,2.831988e+001
9.931768e+002,2.796943e+001
9.951052e+002,2.773836e+001
9.970338e+002,2.743515e+001
9.989622e+002,2.696774e+001
1.000891e+003,2.651806e+001
1.002819e+003,2.617956e+001
1.004748e+003,2.580101e+001
1.006676e+003,2.536148e+001
1.008605e+003,2.489487e+001
1.010533e+003,2.451798e+001
1.012462e+003,2.418968e+001
1.014390e+003,2.377837e+001
1.016319e+003,2.324752e+001
1.018247e+003,2.282564e+001
1.020176e+003,2.246188e+001
1.022104e+003,2.203156e+001
1.024033e+003,2.157238e+001
1.025961e+003,2.120994e+001
1.027890e+003,2.080419e+001
1.029818e+003,2.030566e+001
1.031747e+003,1.980937e+001
1.033675e+003,1.943443e+001
1.035604e+003,1.903432e+001
1.037532e+003,1.857308e+001
1.039461e+003,1.810936e+001
1.041389e+003,1.780926e+001
1.043318e+003,1.751880e+001
1.045246e+003,1.712313e+001
1.047175e+003,1.654476e+001
1.049103e+003,1.611825e+001
1.051032e+003,1.580310e+001
1.052960e+003,1.543516e+001
1.054889e+003,1.497644e+001
1.056817e+003,1.460134e+001
1.058746e+003,1.433880e+001
1.060674e+003,1.403479e+001
1.062603e+003,1.361278e+001
1.064531e+003,1.330437e+001
1.066460e+003,1.305618e+001
1.068388e+003,1.270140e+001
1.070317e+003,1.211546e+001
1.072245e+003,1.154330e+001
1.074174e+003,1.105118e+001
1.076102e+003,1.065207e+001
1.078031e+003,1.026333e+001
1.079959e+003,1.005792e+001
1.081888e+003,1.000000e+001
1.083816e+003,1.005879e+001
1.085745e+003,1.008971e+001
1.087673e+003,1.016052e+001
1.089602e+003,1.034662e+001
1.091530e+003,1.065195e+001
1.093459e+003,1.089225e+001
1.095387e+003,1.119664e+001
1.097316e+003,1.148193e+001
1.099244e+003,1.182376e+001
1.101173e+003,1.214479e+001
1.103101e+003,1.248026e+001
1.105030e+003,1.288735e+001
1.106958e+003,1.340644e+001
1.108887e+003,1.380788e+001
1.110815e+003,1.422757e+001
1.112744e+003,1.464751e+001
1.114672e+003,1.516123e+001
1.116601e+003,1.563348e+001
1.118529e+003,1.602473e+001
1.120458e+003,1.635181e+001
1.122386e+003,1.674062e+001
1.124315e+003,1.716634e+001
1.126243e+003,1.758151e+001
1.128172e+003,1.789753e+001
1.130100e+003,1.828605e+001
1.132029e+003,1.864161e+001
1.133957e+003,1.889083e+001
1.135886e+003,1.905717e+001
1.137814e+003,1.927397e+001
1.139743e+003,1.949929e+001
1.141671e+003,1.967097e+001
1.143600e+003,1.973315e+001
1.145528e+003,1.985671e+001
1.147457e+003,2.003910e+001
1.149385e+003,2.015348e+001
1.151314e+003,2.019172e+001
1.153242e+003,2.039469e+001
1.155171e+003,2.076235e+001
1.157099e+003,2.105980e+001
1.159028e+003,2.100869e+001
1.160956e+003,2.062210e+001
1.162885e+003,2.024251e+001
1.164813e+003,2.013519e+001
1.166742e+003,2.008034e+001
1.168670e+003,2.010882e+001
1.170599e+003,2.020316e+001
1.172527e+003,2.033818e+001
1.174456e+003,2.042662e+001
1.176384e+003,2.041594e+001
1.178313e+003,2.054290e+001
1.180241e+003,2.080053e+001
1.182170e+003,2.092474e+001
1.184098e+003,2.107458e+001
1.186027e+003,2.124778e+001
1.187955e+003,2.148019e+001
1.189884e+003,2.171219e+001
1.191812e+003,2.184244e+001
1.193741e+003,2.201077e+001
1.195669e+003,2.237028e+001
1.197598e+003,2.267432e+001
1.199526e+003,2.282709e+001
1.201455e+003,2.298119e+001
1.203383e+003,2.332943e+001
1.205312e+003,2.363157e+001
1.207240e+003,2.387342e+001
1.209169e+003,2.408756e+001
1.211097e+003,2.440772e+001
1.213026e+003,2.472802e+001
1.214954e+003,2.503187e+001
1.216883e+003,2.526080e+001
1.218811e+003,2.554705e+001
1.220740e+003,2.585823e+001
1.222668e+003,2.610621e+001
1.224597e+003,2.623394e+001
1.226525e+003,2.639703e+001
1.228453e+003,2.658405e+001
1.230382e+003,2.673377e+001
1.232311e+003,2.680283e+001
1.234239e+003,2.691597e+001
1.236167e+003,2.711750e+001
1.238096e+003,2.733738e+001
1.240025e+003,2.740811e+001
1.241953e+003,2.748371e+001
1.243882e+003,2.757647e+001
1.245810e+003,2.770411e+001
1.247739e+003,2.777875e+001
1.249667e+003,2.789618e+001
1.251596e+003,2.810332e+001
1.253524e+003,2.829185e+001
1.255453e+003,2.833296e+001
1.257381e+003,2.838166e+001
1.259310e+003,2.853183e+001
1.261238e+003,2.865250e+001
1.263167e+003,2.871314e+001
1.265095e+003,2.882783e+001
1.267024e+003,2.896369e+001
1.268952e+003,2.915573e+001
1.270880e+003,2.920027e+001
1.272809e+003,2.917749e+001
1.274738e+003,2.919750e+001
1.276666e+003,2.928461e+001
1.278594e+003,2.935164e+001
1.280523e+003,2.940620e+001
1.282452e+003,2.942241e+001
1.284380e+003,2.955260e+001
1.286308e+003,2.974388e+001
1.288237e+003,2.983723e+001
1.290166e+003,2.983754e+001
1.292094e+003,2.993069e+001
1.294022e+003,3.004013e+001
1.295951e+003,3.012623e+001
1.297880e+003,3.014246e+001
1.299808e+003,3.024527e+001
1.301736e+003,3.034662e+001
1.303665e+003,3.043372e+001
1.305594e+003,3.046736e+001
1.307522e+003,3.057184e+001
1.309450e+003,3.068280e+001
1.311379e+003,3.084008e+001
1.313307e+003,3.085655e+001
1.315236e+003,3.087313e+001
1.317164e+003,3.102264e+001
1.319093e+003,3.110276e+001
1.321021e+003,3.100497e+001
1.322950e+003,3.103144e+001
1.324878e+003,3.110761e+001
1.326807e+003,3.119672e+001
1.328735e+003,3.122732e+001
1.330664e+003,3.130579e+001
1.332592e+003,3.137771e+001
1.334521e+003,3.156511e+001
1.336449e+003,3.183672e+001
1.338378e+003,3.221610e+001
1.340307e+003,3.205620e+001
1.342235e+003,3.179844e+001
1.344163e+003,3.182618e+001
1.346092e+003,3.188678e+001
1.348021e+003,3.199771e+001
1.349949e+003,3.206794e+001
1.351877e+003,3.209901e+001
1.353806e+003,3.220829e+001
1.355734e+003,3.222166e+001
1.357663e+003,3.229947e+001
1.359591e+003,3.254073e+001
1.361520e+003,3.295338e+001
1.363448e+003,3.266921e+001
1.365377e+003,3.245704e+001
1.367305e+003,3.263787e+001
1.369234e+003,3.262690e+001
1.371162e+003,3.271376e+001
1.373091e+003,3.316953e+001
1.375019e+003,3.301188e+001
1.376948e+003,3.286971e+001
1.378876e+003,3.296538e+001
1.380805e+003,3.299260e+001
1.382733e+003,3.303284e+001
1.384662e+003,3.337132e+001
1.386590e+003,3.376737e+001
1.388519e+003,3.347588e+001
1.390447e+003,3.343353e+001
1.392376e+003,3.381345e+001
1.394304e+003,3.420996e+001
1.396233e+003,3.412894e+001
1.398161e+003,3.420331e+001
1.400090e+003,3.382944e+001
1.402018e+003,3.384762e+001
1.403947e+003,3.412367e+001
1.405875e+003,3.397310e+001
1.407804e+003,3.395588e+001
1.409732e+003,3.410913e+001
1.411661e+003,3.413765e+001
1.413589e+003,3.416996e+001
1.415518e+003,3.459147e+001
1.417446e+003,3.523352e+001
1.419375e+003,3.479148e+001
1.421303e+003,3.440485e+001
1.423232e+003,3.467502e+001
1.425160e+003,3.437804e+001
1.427089e+003,3.452367e+001
1.429017e+003,3.479366e+001
1.430946e+003,3.470129e+001
1.432874e+003,3.479617e+001
1.434803e+003,3.541312e+001
1.436731e+003,3.521805e+001
1.438660e+003,3.464164e+001
1.440588e+003,3.473069e+001
1.442517e+003,3.478764e+001
1.444445e+003,3.495509e+001
1.446374e+003,3.535673e+001
1.448302e+003,3.522613e+001
1.450231e+003,3.506982e+001
1.452159e+003,3.525335e+001
1.454088e+003,3.589062e+001
1.456016e+003,3.723772e+001
1.457945e+003,3.627982e+001
1.459873e+003,3.509633e+001
1.461802e+003,3.516365e+001
1.463730e+003,3.567108e+001
1.465659e+003,3.533094e+001
1.467587e+003,3.514729e+001
1.469516e+003,3.561667e+001
1.471444e+003,3.665590e+001
1.473373e+003,3.639983e+001
1.475301e+003,3.579520e+001
1.477230e+003,3.525516e+001
1.479158e+003,3.526013e+001
1.481087e+003,3.535286e+001
1.483015e+003,3.522330e+001
1.484944e+003,3.556314e+001
1.486872e+003,3.620441e+001
1.488801e+003,3.677851e+001
1.490729e+003,3.577694e+001
1.492658e+003,3.529413e+001
1.494586e+003,3.593375e+001
1.496515e+003,3.643510e+001
1.498443e+003,3.605048e+001
1.500372e+003,3.576846e+001
1.502300e+003,3.598265e+001
1.504229e+003,3.697694e+001
1.506157e+003,3.888032e+001
1.508086e+003,3.720458e+001
1.510014e+003,3.638696e+001
1.511943e+003,3.614859e+001
1.513871e+003,3.639809e+001
1.515800e+003,3.708572e+001
1.517728e+003,3.667339e+001
1.519657e+003,3.725349e+001
1.521585e+003,3.756040e+001
1.523514e+003,3.681012e+001
1.525442e+003,3.677811e+001
1.527371e+003,3.613499e+001
1.529299e+003,3.576744e+001
1.531228e+003,3.632548e+001
1.533156e+003,3.681483e+001
1.535085e+003,3.628719e+001
1.537013e+003,3.717161e+001
1.538942e+003,3.883123e+001
1.540870e+003,3.894533e+001
1.542799e+003,3.808560e+001
1.544727e+003,3.736052e+001
1.546656e+003,3.684629e+001
1.548584e+003,3.734114e+001
1.550513e+003,3.724253e+001
1.552441e+003,3.754281e+001
1.554370e+003,3.813304e+001
1.556298e+003,3.890289e+001
1.558227e+003,4.018678e+001
1.560155e+003,3.692691e+001
1.562084e+003,3.705019e+001
1.564012e+003,3.730973e+001
1.565941e+003,3.708092e+001
1.567869e+003,3.748412e+001
1.569798e+003,3.709031e+001
1.571726e+003,3.646130e+001
1.573655e+003,3.706157e+001
1.575583e+003,3.761713e+001
1.577512e+003,3.643823e+001
1.579440e+003,3.609377e+001
1.581369e+003,3.594357e+001
1.583297e+003,3.570729e+001
1.585226e+003,3.555899e+001
1.587154e+003,3.552162e+001
1.589083e+003,3.547801e+001
1.591011e+003,3.528521e+001
1.592940e+003,3.520129e+001
1.594868e+003,3.513576e+001
1.596797e+003,3.480654e+001
1.598725e+003,3.462439e+001
1.600654e+003,3.462003e+001
1.602582e+003,3.454567e+001
1.604511e+003,3.433087e+001
1.606439e+003,3.437891e+001
1.608368e+003,3.430624e+001
1.610296e+003,3.399608e+001
1.612225e+003,3.384235e+001
1.614153e+003,3.435526e+001
1.616082e+003,3.475872e+001
1.618010e+003,3.373357e+001
1.619939e+003,3.386854e+001
1.621867e+003,3.458947e+001
1.623796e+003,3.438015e+001
1.625724e+003,3.429728e+001
1.627653e+003,3.449659e+001
1.629581e+003,3.429719e+001
1.631510e+003,3.465212e+001
1.633438e+003,3.554906e+001
1.635367e+003,3.645018e+001
1.637295e+003,3.539610e+001
1.639224e+003,3.519028e+001
1.641152e+003,3.533659e+001
1.643081e+003,3.588369e+001
1.645009e+003,3.700007e+001
1.646938e+003,3.740474e+001
1.648866e+003,3.644187e+001
1.650795e+003,3.743064e+001
1.652723e+003,3.844873e+001
1.654652e+003,3.611120e+001
1.656580e+003,3.606217e+001
1.658509e+003,3.622152e+001
1.660437e+003,3.666128e+001
1.662366e+003,3.685223e+001
1.664294e+003,3.617822e+001
1.666223e+003,3.662730e+001
1.668151e+003,3.741850e+001
1.670080e+003,3.709071e+001
1.672008e+003,3.662633e+001
1.673937e+003,3.699178e+001
1.675865e+003,3.617802e+001
1.677794e+003,3.610779e+001
1.679722e+003,3.660323e+001
1.681651e+003,3.728596e+001
1.683579e+003,3.794552e+001
1.685508e+003,3.611603e+001
1.687436e+003,3.635172e+001
1.689365e+003,3.633443e+001
1.691293e+003,3.610597e+001
1.693222e+003,3.675674e+001
1.695150e+003,3.784998e+001
1.697079e+003,3.808344e+001
1.699007e+003,3.863937e+001
1.700936e+003,3.736600e+001
1.702864e+003,3.756763e+001
1.704793e+003,3.814235e+001
1.706721e+003,3.752395e+001
1.708650e+003,3.744604e+001
1.710578e+003,3.763425e+001
1.712507e+003,3.821447e+001
1.714435e+003,3.929214e+001
1.716364e+003,4.003686e+001
1.718292e+003,3.858431e+001
1.720221e+003,3.798380e+001
1.722149e+003,3.831495e+001
1.724078e+003,3.826739e+001
1.726006e+003,3.827897e+001
1.727935e+003,3.874821e+001
1.729863e+003,3.932650e+001
1.731792e+003,3.999597e+001
1.733720e+003,4.017884e+001
1.735649e+003,3.890615e+001
1.737577e+003,3.954867e+001
1.739506e+003,3.973341e+001
1.741434e+003,3.953143e+001
1.743363e+003,3.977498e+001
1.745291e+003,4.001241e+001
1.747220e+003,4.064332e+001
1.749148e+003,4.062552e+001
1.751077e+003,3.984859e+001
1.753005e+003,3.929787e+001
1.754934e+003,3.969667e+001
1.756862e+003,3.961890e+001
1.758791e+003,3.945755e+001
1.760719e+003,3.971080e+001
1.762648e+003,3.906770e+001
1.764576e+003,3.874389e+001
1.766505e+003,3.893858e+001
1.768433e+003,3.887160e+001
1.770362e+003,3.935028e+001
1.772290e+003,3.875838e+001
1.774219e+003,3.766518e+001
1.776147e+003,3.743674e+001
1.778076e+003,3.745727e+001
1.780004e+003,3.742573e+001
1.781933e+003,3.697278e+001
1.783861e+003,3.694157e+001
1.785790e+003,3.663688e+001
1.787718e+003,3.668292e+001
1.789647e+003,3.724775e+001
1.791575e+003,3.748007e+001
1.793504e+003,3.672774e+001
1.795432e+003,3.675309e+001
1.797361e+003,3.676699e+001
1.799289e+003,3.692852e+001
1.801218e+003,3.676247e+001
1.803146e+003,3.656778e+001
1.805075e+003,3.661852e+001
1.807003e+003,3.683097e+001
1.808932e+003,3.709798e+001
1.810860e+003,3.724223e+001
1.812789e+003,3.706523e+001
1.814717e+003,3.718246e+001
1.816646e+003,3.730944e+001
1.818574e+003,3.741270e+001
1.820503e+003,3.761692e+001
1.822431e+003,3.803830e+001
1.824360e+003,3.834002e+001
1.826288e+003,3.828964e+001
1.828217e+003,3.891395e+001
1.830145e+003,3.869312e+001
1.832074e+003,3.819402e+001
1.834002e+003,3.837197e+001
1.835931e+003,3.849832e+001
1.837859e+003,3.841074e+001
1.839788e+003,3.823892e+001
1.841716e+003,3.864429e+001
1.843645e+003,3.873528e+001
1.845573e+003,3.785965e+001
1.847502e+003,3.745511e+001
1.849430e+003,3.694344e+001
1.851359e+003,3.656998e+001
1.853287e+003,3.620267e+001
1.855216e+003,3.583147e+001
1.857144e+003,3.548532e+001
1.859073e+003,3.517775e+001
1.861001e+003,3.493608e+001
1.862930e+003,3.472742e+001
1.864858e+003,3.476373e+001
1.866786e+003,3.514899e+001
1.868715e+003,3.483874e+001
1.870644e+003,3.406092e+001
1.872572e+003,3.390434e+001
1.874500e+003,3.387860e+001
1.876429e+003,3.388672e+001
1.878358e+003,3.388503e+001
1.880286e+003,3.385426e+001
1.882215e+003,3.386260e+001
1.884143e+003,3.391196e+001
1.886072e+003,3.394001e+001
1.888000e+003,3.419187e+001
1.889929e+003,3.407880e+001
1.891857e+003,3.397761e+001
1.893786e+003,3.426375e+001
1.895714e+003,3.427632e+001
1.897643e+003,3.424627e+001
1.899571e+003,3.439265e+001
1.901500e+003,3.464673e+001
1.903428e+003,3.486020e+001
1.905357e+003,3.513023e+001
1.907285e+003,3.556530e+001
1.909214e+003,3.590511e+001
1.911142e+003,3.600005e+001
1.913071e+003,3.625294e+001
1.914999e+003,3.668614e+001
1.916927e+003,3.716888e+001
1.918856e+003,3.718681e+001
1.920785e+003,3.744841e+001
1.922713e+003,3.758068e+001
1.924641e+003,3.732542e+001
1.926570e+003,3.734231e+001
1.928499e+003,3.732705e+001
1.930427e+003,3.728697e+001
1.932355e+003,3.725270e+001
1.934284e+003,3.721612e+001
1.936213e+003,3.717266e+001
1.938141e+003,3.713564e+001
1.940069e+003,3.735179e+001
1.941998e+003,3.751402e+001
1.943927e+003,3.720369e+001
1.945855e+003,3.710551e+001
1.947783e+003,3.697211e+001
1.949712e+003,3.695768e+001
1.951641e+003,3.696214e+001
1.953569e+003,3.701165e+001
1.955497e+003,3.697084e+001
1.957426e+003,3.694013e+001
1.959354e+003,3.693953e+001
1.961283e+003,3.684776e+001
1.963211e+003,3.670650e+001
1.965140e+003,3.673686e+001
1.967068e+003,3.661114e+001
1.968997e+003,3.633166e+001
1.970925e+003,3.618165e+001
1.972854e+003,3.607594e+001
1.974782e+003,3.606738e+001
1.976711e+003,3.602095e+001
1.978639e+003,3.593915e+001
1.980568e+003,3.590438e+001
1.982496e+003,3.590949e+001
1.984425e+003,3.590592e+001
1.986354e+003,3.593967e+001
1.988282e+003,3.592909e+001
1.990210e+003,3.599135e+001
1.992139e+003,3.596394e+001
1.994068e+003,3.574126e+001
1.995996e+003,3.571115e+001
1.997924e+003,3.572641e+001
1.999853e+003,3.576997e+001
2.001781e+003,3.575589e+001
2.003710e+003,3.578907e+001
2.005638e+003,3.587385e+001
2.007567e+003,3.605407e+001
2.009495e+003,3.622707e+001
2.011424e+003,3.645094e+001
2.013352e+003,3.669427e+001
2.015281e+003,3.706939e+001
2.017209e+003,3.730524e+001
2.019138e+003,3.735397e+001
2.021066e+003,3.746492e+001
2.022995e+003,3.763226e+001
2.024923e+003,3.773576e+001
2.026852e+003,3.786087e+001
2.028780e+003,3.795271e+001
2.030709e+003,3.811623e+001
2.032637e+003,3.833862e+001
2.034566e+003,3.858709e+001
2.036494e+003,3.884972e+001
2.038423e+003,3.924640e+001
2.040351e+003,3.967355e+001
2.042280e+003,3.999332e+001
2.044208e+003,4.024905e+001
2.046137e+003,4.056534e+001
2.048065e+003,4.089376e+001
2.049994e+003,4.115549e+001
2.051922e+003,4.132745e+001
2.053851e+003,4.149473e+001
2.055779e+003,4.166160e+001
2.057708e+003,4.185724e+001
2.059636e+003,4.199879e+001
2.061565e+003,4.206659e+001
2.063493e+003,4.220769e+001
2.065422e+003,4.231387e+001
2.067350e+003,4.232023e+001
2.069279e+003,4.236506e+001
2.071207e+003,4.245275e+001
2.073136e+003,4.257912e+001
2.075064e+003,4.264273e+001
2.076993e+003,4.269001e+001
2.078921e+003,4.275682e+001
2.080850e+003,4.284607e+001
2.082778e+003,4.291884e+001
2.084707e+003,4.294962e+001
2.086635e+003,4.294441e+001
2.088564e+003,4.303050e+001
2.090492e+003,4.310964e+001
2.092421e+003,4.314101e+001
2.094349e+003,4.317226e+001
2.096278e+003,4.321494e+001
2.098206e+003,4.326225e+001
2.100135e+003,4.330161e+001
2.102063e+003,4.327128e+001
2.103992e+003,4.327651e+001
2.105920e+003,4.333171e+001
2.107849e+003,4.340522e+001
2.109777e+003,4.339935e+001
2.111706e+003,4.339162e+001
2.113634e+003,4.343409e+001
2.115563e+003,4.350507e+001
2.117491e+003,4.352340e+001
2.119420e+003,4.345522e+001
2.121348e+003,4.342422e+001
2.123277e+003,4.348607e+001
2.125205e+003,4.345664e+001
2.127134e+003,4.341246e+001
2.129062e+003,4.334903e+001
2.130991e+003,4.331988e+001
2.132919e+003,4.329618e+001
2.134848e+003,4.325831e+001
2.136776e+003,4.324369e+001
2.138705e+003,4.329721e+001
2.140633e+003,4.334773e+001
2.142562e+003,4.340002e+001
2.144490e+003,4.346302e+001
2.146419e+003,4.355201e+001
2.148347e+003,4.359427e+001
2.150276e+003,4.365737e+001
2.152204e+003,4.370473e+001
2.154133e+003,4.375829e+001
2.156061e+003,4.381039e+001
2.157990e+003,4.384656e+001
2.159918e+003,4.385746e+001
2.161847e+003,4.390408e+001
2.163775e+003,4.396814e+001
2.165704e+003,4.399118e+001
2.167632e+003,4.398633e+001
2.169561e+003,4.399625e+001
2.171489e+003,4.403525e+001
2.173418e+003,4.407196e+001
2.175346e+003,4.406504e+001
2.177275e+003,4.409737e+001
2.179203e+003,4.410102e+001
2.181132e+003,4.416011e+001
2.183060e+003,4.416730e+001
2.184989e+003,4.413063e+001
2.186917e+003,4.410073e+001
2.188846e+003,4.411172e+001
2.190774e+003,4.411263e+001
2.192703e+003,4.410424e+001
2.194631e+003,4.407812e+001
2.196560e+003,4.410302e+001
2.198488e+003,4.407529e+001
2.200417e+003,4.400431e+001
2.202345e+003,4.393153e+001
2.204274e+003,4.391732e+001
2.206202e+003,4.391793e+001
2.208131e+003,4.386032e+001
2.210059e+003,4.377224e+001
2.211988e+003,4.373601e+001
2.213916e+003,4.368072e+001
2.215845e+003,4.358961e+001
2.217773e+003,4.345911e+001
2.219702e+003,4.335548e+001
2.221630e+003,4.327967e+001
2.223559e+003,4.322070e+001
2.225487e+003,4.315462e+001
2.227416e+003,4.309611e+001
2.229344e+003,4.306068e+001
2.231273e+003,4.304970e+001
2.233201e+003,4.302810e+001
2.235130e+003,4.298969e+001
2.237058e+003,4.300285e+001
2.238987e+003,4.302501e+001
2.240915e+003,4.295627e+001
2.242844e+003,4.290635e+001
2.244772e+003,4.292992e+001
2.246701e+003,4.299971e+001
2.248629e+003,4.301173e+001
2.250558e+003,4.299139e+001
2.252486e+003,4.299468e+001
2.254415e+003,4.304694e+001
2.256343e+003,4.309438e+001
2.258272e+003,4.306060e+001
2.260200e+003,4.300651e+001
2.262129e+003,4.300476e+001
2.264057e+003,4.298511e+001
2.265986e+003,4.296608e+001
2.267914e+003,4.299431e+001
2.269843e+003,4.302143e+001
2.271771e+003,4.303981e+001
2.273700e+003,4.309533e+001
2.275628e+003,4.316040e+001
2.277557e+003,4.321888e+001
2.279485e+003,4.330568e+001
2.281414e+003,4.345395e+001
2.283342e+003,4.351306e+001
2.285271e+003,4.340181e+001
2.287199e+003,4.326020e+001
2.289128e+003,4.310739e+001
2.291056e+003,4.293604e+001
2.292985e+003,4.274565e+001
2.294913e+003,4.256821e+001
2.296842e+003,4.241423e+001
2.298770e+003,4.213038e+001
2.300699e+003,4.185873e+001
2.302627e+003,4.166232e+001
2.304556e+003,4.134058e+001
2.306484e+003,4.079166e+001
2.308413e+003,4.018433e+001
2.310341e+003,3.961302e+001
2.312270e+003,3.921940e+001
2.314198e+003,3.894884e+001
2.316127e+003,3.847885e+001
2.318055e+003,3.766499e+001
2.319984e+003,3.674312e+001
2.321912e+003,3.585688e+001
2.323841e+003,3.525298e+001
2.325769e+003,3.474342e+001
2.327698e+003,3.425784e+001
2.329626e+003,3.356467e+001
2.331555e+003,3.309272e+001
2.333483e+003,3.304058e+001
2.335412e+003,3.282627e+001
2.337340e+003,3.235348e+001
2.339269e+003,3.203499e+001
2.341197e+003,3.180396e+001
2.343126e+003,3.191902e+001
2.345054e+003,3.267168e+001
2.346983e+003,3.480408e+001
2.348911e+003,3.598170e+001
2.350840e+003,3.471907e+001
2.352768e+003,3.229799e+001
2.354697e+003,3.043501e+001
2.356625e+003,2.906641e+001
2.358554e+003,2.837543e+001
2.360482e+003,2.807616e+001
2.362411e+003,2.832469e+001
2.364339e+003,2.904465e+001
2.366268e+003,3.019780e+001
2.368196e+003,3.164623e+001
2.370125e+003,3.332935e+001
2.372053e+003,3.498944e+001
2.373982e+003,3.660784e+001
2.375910e+003,3.808837e+001
2.377839e+003,3.939725e+001
2.379767e+003,4.065571e+001
2.381696e+003,4.185911e+001
2.383624e+003,4.284516e+001
2.385553e+003,4.350972e+001
2.387481e+003,4.387802e+001
2.389410e+003,4.403568e+001
2.391338e+003,4.408109e+001
2.393267e+003,4.410299e+001
2.395195e+003,4.407532e+001
2.397124e+003,4.407718e+001
2.399052e+003,4.415956e+001
2.400981e+003,4.417497e+001
2.402909e+003,4.412189e+001
2.404838e+003,4.413940e+001
2.406766e+003,4.416502e+001
2.408695e+003,4.417509e+001
2.410623e+003,4.414862e+001
2.412552e+003,4.417307e+001
2.414480e+003,4.419662e+001
2.416409e+003,4.418040e+001
2.418337e+003,4.415509e+001
2.420266e+003,4.419662e+001
2.422194e+003,4.421890e+001
2.424123e+003,4.420952e+001
2.426051e+003,4.420096e+001
2.427980e+003,4.417620e+001
2.429908e+003,4.413218e+001
2.431837e+003,4.414980e+001
2.433765e+003,4.419056e+001
2.435694e+003,4.419398e+001
2.437622e+003,4.416514e+001
2.439551e+003,4.418225e+001
2.441479e+003,4.417155e+001
2.443408e+003,4.414360e+001
2.445336e+003,4.412825e+001
2.447265e+003,4.416811e+001
2.449193e+003,4.417184e+001
2.451122e+003,4.415980e+001
2.453050e+003,4.418106e+001
2.454979e+003,4.418084e+001
2.456907e+003,4.415434e+001
2.458836e+003,4.413020e+001
2.460764e+003,4.412392e+001
2.462693e+003,4.415306e+001
2.464621e+003,4.413250e+001
2.466550e+003,4.411493e+001
2.468478e+003,4.409631e+001
2.470406e+003,4.405430e+001
2.472335e+003,4.401880e+001
2.474264e+003,4.402333e+001
2.476192e+003,4.406155e+001
2.478121e+003,4.410135e+001
2.480049e+003,4.409908e+001
2.481978e+003,4.406802e+001
2.483906e+003,4.399047e+001
2.485834e+003,4.396068e+001
2.487763e+003,4.400389e+001
2.489692e+003,4.401053e+001
2.491620e+003,4.399701e+001
2.493549e+003,4.399994e+001
2.495477e+003,4.397837e+001
2.497406e+003,4.393438e+001
2.499334e+003,4.392434e+001
2.501262e+003,4.392288e+001
2.503191e+003,4.387259e+001
2.505120e+003,4.385796e+001
2.507048e+003,4.390679e+001
2.508977e+003,4.394738e+001
2.510905e+003,4.390600e+001
2.512833e+003,4.389671e+001
2.514762e+003,4.388367e+001
2.516690e+003,4.389095e+001
2.518619e+003,4.391361e+001
2.520548e+003,4.391714e+001
2.522476e+003,4.386445e+001
2.524405e+003,4.384170e+001
2.526333e+003,4.387245e+001
2.528261e+003,4.390244e+001
2.530190e+003,4.388181e+001
2.532119e+003,4.385142e+001
2.534047e+003,4.383780e+001
2.535976e+003,4.385855e+001
2.537904e+003,4.383848e+001
2.539833e+003,4.380573e+001
2.541761e+003,4.378063e+001
2.543689e+003,4.376038e+001
2.545618e+003,4.374468e+001
2.547547e+003,4.374527e+001
2.549475e+003,4.377516e+001
2.551404e+003,4.379972e+001
2.553332e+003,4.374979e+001
2.555260e+003,4.373051e+001
2.557189e+003,4.373195e+001
2.559117e+003,4.375432e+001
2.561046e+003,4.377584e+001
2.562975e+003,4.377976e+001
2.564903e+003,4.374239e+001
2.566832e+003,4.371622e+001
2.568760e+003,4.366892e+001
2.570688e+003,4.362917e+001
2.572617e+003,4.360854e+001
2.574545e+003,4.358865e+001
2.576474e+003,4.354736e+001
2.578403e+003,4.354903e+001
2.580331e+003,4.355387e+001
2.582260e+003,4.355386e+001
2.584188e+003,4.356514e+001
2.586116e+003,4.356981e+001
2.588045e+003,4.353500e+001
2.589973e+003,4.348174e+001
2.591902e+003,4.345330e+001
2.593831e+003,4.341031e+001
2.595759e+003,4.338063e+001
2.597688e+003,4.340213e+001
2.599616e+003,4.343335e+001
2.601544e+003,4.340863e+001
2.603473e+003,4.340993e+001
2.605401e+003,4.343266e+001
2.607330e+003,4.341106e+001
2.609259e+003,4.337566e+001
2.611187e+003,4.335447e+001
2.613115e+003,4.334987e+001
2.615044e+003,4.330207e+001
2.616972e+003,4.327248e+001
2.618901e+003,4.326398e+001
2.620830e+003,4.326744e+001
2.622758e+003,4.326576e+001
2.624687e+003,4.327871e+001
2.626615e+003,4.329459e+001
2.628543e+003,4.327012e+001
2.630472e+003,4.324398e+001
2.632400e+003,4.319355e+001
2.634329e+003,4.311775e+001
2.636258e+003,4.309121e+001
2.638186e+003,4.307518e+001
2.640115e+003,4.311505e+001
2.642043e+003,4.310098e+001
2.643971e+003,4.306761e+001
2.645900e+003,4.303851e+001
2.647828e+003,4.307408e+001
2.649757e+003,4.311965e+001
2.651686e+003,4.305475e+001
2.653614e+003,4.299008e+001
2.655542e+003,4.299206e+001
2.657471e+003,4.301090e+001
2.659399e+003,4.297049e+001
2.661328e+003,4.290649e+001
2.663256e+003,4.291726e+001
2.665185e+003,4.294631e+001
2.667114e+003,4.289211e+001
2.669042e+003,4.284118e+001
2.670970e+003,4.284995e+001
2.672899e+003,4.289333e+001
2.674827e+003,4.286748e+001
2.676756e+003,4.283095e+001
2.678684e+003,4.282775e+001
2.680613e+003,4.282627e+001
2.682542e+003,4.283493e+001
2.684470e+003,4.281403e+001
2.686398e+003,4.275605e+001
2.688327e+003,4.274571e+001
2.690255e+003,4.276041e+001
2.692184e+003,4.278249e+001
2.694112e+003,4.281308e+001
2.696041e+003,4.274132e+001
2.697969e+003,4.268466e+001
2.699898e+003,4.268324e+001
2.701826e+003,4.268137e+001
2.703755e+003,4.262933e+001
2.705683e+003,4.260034e+001
2.707612e+003,4.258939e+001
2.709540e+003,4.260839e+001
2.711469e+003,4.262612e+001
2.713397e+003,4.264859e+001
2.715326e+003,4.266189e+001
2.717254e+003,4.263131e+001
2.719183e+003,4.258498e+001
2.721111e+003,4.259765e+001
2.723040e+003,4.258630e+001
2.724969e+003,4.255361e+001
2.726897e+003,4.255538e+001
2.728825e+003,4.257256e+001
2.730754e+003,4.257396e+001
2.732682e+003,4.253341e+001
2.734611e+003,4.247437e+001
2.736539e+003,4.247981e+001
2.738468e+003,4.247663e+001
2.740396e+003,4.251273e+001
2.742325e+003,4.249640e+001
2.744253e+003,4.242874e+001
2.746182e+003,4.239351e+001
2.748110e+003,4.244466e+001
2.750039e+003,4.248122e+001
2.751967e+003,4.247322e+001
2.753896e+003,4.244368e+001
2.755824e+003,4.240145e+001
2.757753e+003,4.236619e+001
2.759681e+003,4.233885e+001
2.761610e+003,4.227480e+001
2.763538e+003,4.224182e+001
2.765467e+003,4.226449e+001
2.767395e+003,4.224856e+001
2.769324e+003,4.216534e+001
2.771252e+003,4.216311e+001
2.773181e+003,4.217527e+001
2.775109e+003,4.216568e+001
2.777038e+003,4.215301e+001
2.778966e+003,4.212084e+001
2.780895e+003,4.208611e+001
2.782823e+003,4.212810e+001
2.784752e+003,4.212078e+001
2.786680e+003,4.206758e+001
2.788609e+003,4.200313e+001
2.790537e+003,4.203481e+001
2.792466e+003,4.206850e+001
2.794394e+003,4.201176e+001
2.796323e+003,4.192649e+001
2.798251e+003,4.193080e+001
2.800180e+003,4.195617e+001
2.802108e+003,4.195691e+001
2.804037e+003,4.196831e+001
2.805965e+003,4.195808e+001
2.807894e+003,4.186086e+001
2.809822e+003,4.179750e+001
2.811751e+003,4.179870e+001
2.813679e+003,4.184143e+001
2.815608e+003,4.183045e+001
2.817536e+003,4.178927e+001
2.819465e+003,4.180143e+001
2.821393e+003,4.177753e+001
2.823322e+003,4.171850e+001
2.825250e+003,4.167556e+001
2.827179e+003,4.164815e+001
2.829107e+003,4.168382e+001
2.831036e+003,4.169044e+001
2.832964e+003,4.161623e+001
2.834893e+003,4.154261e+001
2.836821e+003,4.150078e+001
2.838750e+003,4.145661e+001
2.840678e+003,4.142867e+001
2.842607e+003,4.138905e+001
2.844535e+003,4.134787e+001
2.846464e+003,4.129135e+001
2.848392e+003,4.126921e+001
2.850321e+003,4.116032e+001
2.852249e+003,4.107561e+001
2.854178e+003,4.107790e+001
2.856106e+003,4.108328e+001
2.858035e+003,4.107086e+001
2.859963e+003,4.104958e+001
2.861892e+003,4.106344e+001
2.863820e+003,4.106596e+001
2.865749e+003,4.098531e+001
2.867677e+003,4.094566e+001
2.869606e+003,4.093932e+001
2.871534e+003,4.090020e+001
2.873463e+003,4.090631e+001
2.875391e+003,4.094797e+001
2.877320e+003,4.095798e+001
2.879248e+003,4.092222e+001
2.881177e+003,4.092648e+001
2.883105e+003,4.088035e+001
2.885034e+003,4.074512e+001
2.886962e+003,4.072245e+001
2.888891e+003,4.075642e+001
2.890819e+003,4.073910e+001
2.892748e+003,4.066660e+001
2.894676e+003,4.060123e+001
2.896605e+003,4.058057e+001
2.898533e+003,4.057900e+001
2.900462e+003,4.052447e+001
2.902390e+003,4.048146e+001
2.904319e+003,4.046697e+001
2.906247e+003,4.046257e+001
2.908176e+003,4.034253e+001
2.910104e+003,4.024344e+001
2.912033e+003,4.020522e+001
2.913961e+003,4.014492e+001
2.915890e+003,4.007975e+001
2.917818e+003,4.003536e+001
2.919747e+003,3.999094e+001
2.921675e+003,3.998490e+001
2.923604e+003,4.000003e+001
2.925532e+003,4.009113e+001
2.927461e+003,4.008410e+001
2.929389e+003,4.001529e+001
2.931318e+003,4.006879e+001
2.933246e+003,4.016182e+001
2.935175e+003,4.019429e+001
2.937103e+003,4.022774e+001
2.939032e+003,4.026653e+001
2.940960e+003,4.023571e+001
2.942889e+003,4.014397e+001
2.944817e+003,4.013324e+001
2.946746e+003,4.011682e+001
2.948674e+003,4.012781e+001
2.950603e+003,4.017073e+001
2.952531e+003,4.018842e+001
2.954460e+003,4.019484e+001
2.956388e+003,4.016039e+001
2.958317e+003,4.008456e+001
2.960245e+003,4.008419e+001
2.962174e+003,4.013673e+001
2.964102e+003,4.016309e+001
2.966031e+003,4.010272e+001
2.967959e+003,4.005983e+001
2.969888e+003,4.004811e+001
2.971816e+003,4.005813e+001
2.973745e+003,4.000010e+001
2.975673e+003,3.996387e+001
2.977602e+003,3.999218e+001
2.979530e+003,4.001843e+001
2.981459e+003,4.005218e+001
2.983387e+003,4.006754e+001
2.985316e+003,4.007619e+001
2.987244e+003,4.007753e+001
2.989173e+003,4.002832e+001
2.991101e+003,4.002134e+001
2.993030e+003,4.006496e+001
2.994958e+003,4.004346e+001
2.996887e+003,4.000288e+001
2.998815e+003,3.998058e+001
3.000744e+003,4.000291e+001
3.002672e+003,4.006163e+001
3.004601e+003,4.000093e+001
3.006529e+003,3.993975e+001
3.008458e+003,3.993617e+001
3.010386e+003,3.993797e+001
3.012315e+003,3.993304e+001
3.014243e+003,3.987122e+001
3.016172e+003,3.980634e+001
3.018100e+003,3.980208e+001
3.020029e+003,3.980928e+001
3.021957e+003,3.983125e+001
3.023886e+003,3.985641e+001
3.025814e+003,3.976666e+001
3.027743e+003,3.973371e+001
3.029671e+003,3.982469e+001
3.031600e+003,3.974975e+001
3.033528e+003,3.963749e+001
3.035457e+003,3.960228e+001
3.037385e+003,3.957710e+001
3.039314e+003,3.957539e+001
3.041242e+003,3.956078e+001
3.043171e+003,3.949374e+001
3.045099e+003,3.944502e+001
3.047028e+003,3.949546e+001
3.048956e+003,3.948182e+001
3.050885e+003,3.941188e+001
3.052813e+003,3.941531e+001
3.054742e+003,3.943612e+001
3.056670e+003,3.934439e+001
3.058599e+003,3.930054e+001
3.060527e+003,3.930173e+001
3.062456e+003,3.926385e+001
3.064384e+003,3.928806e+001
3.066313e+003,3.924856e+001
3.068241e+003,3.917809e+001
3.070170e+003,3.915914e+001
3.072098e+003,3.918430e+001
3.074027e+003,3.914496e+001
3.075955e+003,3.910786e+001
3.077884e+003,3.912555e+001
3.079812e+003,3.905315e+001
3.081741e+003,3.894903e+001
3.083669e+003,3.889906e+001
3.085598e+003,3.887129e+001
3.087526e+003,3.878918e+001
3.089455e+003,3.875602e+001
3.091383e+003,3.884206e+001
3.093312e+003,3.888812e+001
3.095240e+003,3.881236e+001
3.097169e+003,3.869548e+001
3.099097e+003,3.872420e+001
3.101026e+003,3.872338e+001
3.102954e+003,3.865286e+001
3.104883e+003,3.862292e+001
3.106811e+003,3.861778e+001
3.108740e+003,3.857590e+001
3.110668e+003,3.853690e+001
3.112597e+003,3.847115e+001
3.114525e+003,3.844127e+001
3.116454e+003,3.839347e+001
3.118382e+003,3.836201e+001
3.120311e+003,3.835074e+001
3.122239e+003,3.835582e+001
3.124167e+003,3.829583e+001
3.126096e+003,3.823004e+001
3.128025e+003,3.813050e+001
3.129953e+003,3.815280e+001
3.131882e+003,3.822449e+001
3.133810e+003,3.816913e+001
3.135739e+003,3.806356e+001
3.137667e+003,3.797972e+001
3.139595e+003,3.793740e+001
3.141524e+003,3.791203e+001
3.143453e+003,3.788933e+001
3.145381e+003,3.789565e+001
3.147310e+003,3.778337e+001
3.149238e+003,3.771629e+001
3.151167e+003,3.766949e+001
3.153095e+003,3.766628e+001
3.155023e+003,3.767231e+001
3.156952e+003,3.763781e+001
3.158881e+003,3.755122e+001
3.160809e+003,3.752318e+001
3.162738e+003,3.750580e+001
3.164666e+003,3.747673e+001
3.166594e+003,3.740602e+001
3.168523e+003,3.737597e+001
3.170452e+003,3.726671e+001
3.172380e+003,3.730210e+001
3.174309e+003,3.733513e+001
3.176237e+003,3.728203e+001
3.178166e+003,3.709812e+001
3.180094e+003,3.697393e+001
3.182022e+003,3.698277e+001
3.183951e+003,3.704058e+001
3.185880e+003,3.702697e+001
3.187808e+003,3.692020e+001
3.189737e+003,3.686348e+001
3.191665e+003,3.684190e+001
3.193594e+003,3.672520e+001
3.195522e+003,3.667039e+001
3.197450e+003,3.664107e+001
3.199379e+003,3.659925e+001
3.201308e+003,3.649196e+001
3.203236e+003,3.639362e+001
3.205165e+003,3.630209e+001
3.207093e+003,3.631608e+001
3.209021e+003,3.635820e+001
3.210950e+003,3.629921e+001
3.212878e+003,3.626905e+001
3.214807e+003,3.614084e+001
3.216736e+003,3.614194e+001
3.218664e+003,3.618622e+001
3.220593e+003,3.600145e+001
3.222521e+003,3.591320e+001
3.224449e+003,3.595969e+001
3.226378e+003,3.595754e+001
3.228306e+003,3.589925e+001
3.230235e+003,3.580945e+001
3.232164e+003,3.566258e+001
3.234092e+003,3.554403e+001
3.236021e+003,3.557085e+001
3.237949e+003,3.553800e+001
3.239877e+003,3.548753e+001
3.241806e+003,3.549348e+001
3.243734e+003,3.546268e+001
3.245663e+003,3.532822e+001
3.247592e+003,3.526644e+001
3.249520e+003,3.524905e+001
3.251448e+003,3.525609e+001
3.253377e+003,3.521912e+001
3.255305e+003,3.507172e+001
3.257234e+003,3.501389e+001
3.259162e+003,3.498972e+001
3.261091e+003,3.492917e+001
3.263020e+003,3.485502e+001
3.264948e+003,3.481615e+001
3.266876e+003,3.476177e+001
3.268805e+003,3.468413e+001
3.270733e+003,3.465638e+001
3.272662e+003,3.474651e+001
3.274591e+003,3.464045e+001
3.276519e+003,3.463254e+001
3.278448e+003,3.458321e+001
3.280376e+003,3.448725e+001
3.282304e+003,3.441823e+001
3.284233e+003,3.432095e+001
3.286161e+003,3.426940e+001
3.288090e+003,3.421718e+001
3.290019e+003,3.414333e+001
3.291947e+003,3.413123e+001
3.293875e+003,3.401910e+001
3.295804e+003,3.401933e+001
3.297732e+003,3.396081e+001
3.299661e+003,3.383655e+001
3.301589e+003,3.380756e+001
3.303518e+003,3.378464e+001
3.305447e+003,3.371957e+001
3.307375e+003,3.369120e+001
3.309303e+003,3.363368e+001
3.311232e+003,3.363847e+001
3.313160e+003,3.352468e+001
3.315089e+003,3.342127e+001
3.317017e+003,3.341096e+001
3.318946e+003,3.333779e+001
3.320875e+003,3.322073e+001
3.322803e+003,3.316308e+001
3.324731e+003,3.303267e+001
3.326660e+003,3.300645e+001
3.328588e+003,3.303445e+001
3.330517e+003,3.300003e+001
3.332445e+003,3.294112e+001
3.334374e+003,3.287957e+001
3.336302e+003,3.272314e+001
3.338231e+003,3.261352e+001
3.340159e+003,3.254586e+001
3.342088e+003,3.248753e+001
3.344016e+003,3.245422e+001
3.345945e+003,3.240588e+001
3.347873e+003,3.223785e+001
3.349802e+003,3.210534e+001
3.351730e+003,3.203832e+001
3.353659e+003,3.203992e+001
3.355587e+003,3.199601e+001
3.357516e+003,3.189884e+001
3.359444e+003,3.178371e+001
3.361373e+003,3.175610e+001
3.363302e+003,3.171185e+001
3.365230e+003,3.156118e+001
3.367158e+003,3.138683e+001
3.369087e+003,3.129315e+001
3.371015e+003,3.118183e+001
3.372944e+003,3.112761e+001
3.374872e+003,3.114724e+001
3.376801e+003,3.105995e+001
3.378729e+003,3.095850e+001
3.380658e+003,3.088981e+001
3.382586e+003,3.087124e+001
3.384515e+003,3.086760e+001
3.386443e+003,3.079535e+001
3.388372e+003,3.068426e+001
3.390300e+003,3.068015e+001
3.392229e+003,3.068380e+001
3.394157e+003,3.049845e+001
3.396086e+003,3.046552e+001
3.398014e+003,3.035251e+001
3.399943e+003,3.028864e+001
3.401871e+003,3.035715e+001
3.403800e+003,3.036571e+001
3.405728e+003,3.020040e+001
3.407657e+003,3.013734e+001
3.409585e+003,3.012454e+001
3.411514e+003,3.003357e+001
3.413442e+003,2.994951e+001
3.415371e+003,2.999623e+001
3.417299e+003,3.000817e+001
3.419228e+003,3.004196e+001
3.421156e+003,2.985495e+001
3.423085e+003,2.973021e+001
3.425013e+003,2.973607e+001
3.426942e+003,2.972445e+001
3.428870e+003,2.963924e+001
3.430799e+003,2.956165e+001
3.432727e+003,2.952584e+001
3.434656e+003,2.954368e+001
3.436584e+003,2.946315e+001
3.438513e+003,2.944424e+001
3.440441e+003,2.958613e+001
3.442370e+003,2.961844e+001
3.444298e+003,2.966553e+001
3.446227e+003,2.974297e+001
3.448155e+003,2.946260e+001
3.450084e+003,2.942209e+001
3.452012e+003,2.948683e+001
3.453941e+003,2.957827e+001
3.455869e+003,2.947652e+001
3.457798e+003,2.935924e+001
3.459726e+003,2.949567e+001
3.461655e+003,2.966806e+001
3.463583e+003,2.956293e+001
3.465512e+003,2.953078e+001
3.467440e+003,2.943719e+001
3.469369e+003,2.947965e+001
3.471297e+003,2.948633e+001
3.473226e+003,2.956382e+001
3.475154e+003,2.965858e+001
3.477083e+003,2.968841e+001
3.479011e+003,2.983212e+001
3.480940e+003,2.996143e+001
3.482868e+003,2.975220e+001
3.484797e+003,2.978286e+001
3.486725e+003,2.985537e+001
3.488654e+003,2.980886e+001
3.490582e+003,2.983832e+001
3.492511e+003,2.982417e+001
3.494439e+003,2.982517e+001
3.496368e+003,2.986797e+001
3.498296e+003,2.991881e+001
3.500225e+003,3.018549e+001
3.502153e+003,3.021389e+001
3.504082e+003,2.993790e+001
3.506010e+003,3.000438e+001
3.507939e+003,3.023808e+001
3.509867e+003,2.997910e+001
3.511796e+003,2.978770e+001
3.513724e+003,2.983466e+001
3.515653e+003,3.008591e+001
3.517581e+003,3.019909e+001
3.519510e+003,3.023207e+001
3.521438e+003,3.055947e+001
3.523367e+003,3.063299e+001
3.525295e+003,3.061384e+001
3.527224e+003,3.070305e+001
3.529152e+003,3.045697e+001
3.531081e+003,3.033030e+001
3.533009e+003,3.040811e+001
3.534938e+003,3.065265e+001
3.536866e+003,3.042924e+001
3.538795e+003,3.048189e+001
3.540723e+003,3.068478e+001
3.542652e+003,3.107007e+001
3.544580e+003,3.123482e+001
3.546509e+003,3.089894e+001
3.548437e+003,3.069268e+001
3.550366e+003,3.110855e+001
3.552294e+003,3.101837e+001
3.554223e+003,3.060498e+001
3.556151e+003,3.072510e+001
3.558080e+003,3.101873e+001
3.560008e+003,3.109177e+001
3.561937e+003,3.129020e+001
3.563865e+003,3.212762e+001
3.565794e+003,3.270514e+001
3.567722e+003,3.118882e+001
3.569651e+003,3.078614e+001
3.571579e+003,3.111071e+001
3.573508e+003,3.124254e+001
3.575436e+003,3.130277e+001
3.577365e+003,3.136342e+001
3.579293e+003,3.124273e+001
3.581222e+003,3.123155e+001
3.583150e+003,3.147501e+001
3.585079e+003,3.235558e+001
3.587007e+003,3.249155e+001
3.588936e+003,3.110334e+001
3.590864e+003,3.128388e+001
3.592793e+003,3.175638e+001
3.594721e+003,3.169304e+001
3.596650e+003,3.160462e+001
3.598578e+003,3.170102e+001
3.600507e+003,3.151015e+001
3.602435e+003,3.125086e+001
3.604364e+003,3.168357e+001
3.606292e+003,3.250988e+001
3.608221e+003,3.240514e+001
3.610149e+003,3.243107e+001
3.612078e+003,3.313800e+001
3.614006e+003,3.269576e+001
3.615935e+003,3.290098e+001
3.617863e+003,3.345194e+001
3.619792e+003,3.241828e+001
3.621720e+003,3.157930e+001
3.623649e+003,3.183605e+001
3.625577e+003,3.279345e+001
3.627506e+003,3.430137e+001
3.629434e+003,3.217401e+001
3.631363e+003,3.184307e+001
3.633291e+003,3.215219e+001
3.635220e+003,3.190896e+001
3.637148e+003,3.224886e+001
3.639077e+003,3.229060e+001
3.641005e+003,3.247728e+001
3.642934e+003,3.259486e+001
3.644862e+003,3.373507e+001
3.646791e+003,3.536018e+001
3.648719e+003,3.494007e+001
3.650648e+003,3.231485e+001
3.652576e+003,3.220879e+001
3.654505e+003,3.341420e+001
3.656433e+003,3.269605e+001
3.658362e+003,3.208543e+001
3.660290e+003,3.227900e+001
3.662219e+003,3.231725e+001
3.664147e+003,3.230825e+001
3.666076e+003,3.287589e+001
3.668004e+003,3.432215e+001
3.669933e+003,3.392327e+001
3.671861e+003,3.325106e+001
3.673790e+003,3.521029e+001
3.675718e+003,3.337765e+001
3.677647e+003,3.247179e+001
3.679575e+003,3.226259e+001
3.681504e+003,3.205327e+001
3.683432e+003,3.227542e+001
3.685361e+003,3.294312e+001
3.687289e+003,3.399580e+001
3.689218e+003,3.340301e+001
3.691146e+003,3.190124e+001
3.693075e+003,3.157775e+001
3.695003e+003,3.193931e+001
3.696932e+003,3.191929e+001
3.698860e+003,3.235339e+001
3.700789e+003,3.245325e+001
3.702717e+003,3.160844e+001
3.704646e+003,3.185467e+001
3.706574e+003,3.257968e+001
3.708503e+003,3.347379e+001
3.710431e+003,3.400202e+001
3.712360e+003,3.263021e+001
3.714288e+003,3.208152e+001
3.716217e+003,3.237408e+001
3.718145e+003,3.244025e+001
3.720074e+003,3.261350e+001
3.722002e+003,3.263170e+001
3.723931e+003,3.241196e+001
3.725859e+003,3.208076e+001
3.727788e+003,3.140536e+001
3.729716e+003,3.230260e+001
3.731645e+003,3.330830e+001
3.733573e+003,3.372732e+001
3.735502e+003,3.259791e+001
3.737430e+003,3.158463e+001
3.739359e+003,3.228522e+001
3.741287e+003,3.339827e+001
3.743216e+003,3.488649e+001
3.745144e+003,3.354911e+001
3.747073e+003,3.432332e+001
3.749001e+003,3.565000e+001
3.750930e+003,3.473086e+001
3.752858e+003,3.280824e+001
3.754787e+003,3.325324e+001
3.756715e+003,3.385890e+001
3.758644e+003,3.364857e+001
3.760572e+003,3.265990e+001
3.762500e+003,3.287011e+001
3.764429e+003,3.310666e+001
3.766358e+003,3.270094e+001
3.768286e+003,3.326286e+001
3.770215e+003,3.246984e+001
3.772143e+003,3.223956e+001
3.774072e+003,3.247093e+001
3.776000e+003,3.276764e+001
3.777928e+003,3.328695e+001
3.779857e+003,3.247438e+001
3.781786e+003,3.264091e+001
3.783714e+003,3.307334e+001
3.785643e+003,3.243701e+001
3.787571e+003,3.233924e+001
3.789500e+003,3.238806e+001
3.791428e+003,3.237503e+001
3.793356e+003,3.279959e+001
3.795285e+003,3.355643e+001
3.797214e+003,3.320918e+001
3.799142e+003,3.435085e+001
3.801071e+003,3.435861e+001
3.802999e+003,3.233440e+001
3.804927e+003,3.344425e+001
3.806856e+003,3.283751e+001
3.808785e+003,3.204753e+001
3.810713e+003,3.241213e+001
3.812642e+003,3.294888e+001
3.814570e+003,3.386755e+001
3.816499e+003,3.265437e+001
3.818427e+003,3.384730e+001
3.820355e+003,3.447823e+001
3.822284e+003,3.228930e+001
3.824213e+003,3.293079e+001
3.826141e+003,3.287735e+001
3.828070e+003,3.248019e+001
3.829998e+003,3.308565e+001
3.831927e+003,3.302127e+001
3.833855e+003,3.322163e+001
3.835783e+003,3.382885e+001
3.837712e+003,3.407622e+001
3.839641e+003,3.307850e+001
3.841569e+003,3.261539e+001
3.843498e+003,3.226524e+001
3.845426e+003,3.174313e+001
3.847354e+003,3.240560e+001
3.849283e+003,3.354385e+001
3.851211e+003,3.547558e+001
3.853140e+003,3.418086e+001
3.855069e+003,3.177268e+001
3.856997e+003,3.188489e+001
3.858926e+003,3.219420e+001
3.860854e+003,3.284986e+001
3.862782e+003,3.326048e+001
3.864711e+003,3.239298e+001
3.866639e+003,3.235072e+001
3.868568e+003,3.377794e+001
3.870497e+003,3.229654e+001
3.872425e+003,3.247666e+001
3.874354e+003,3.162881e+001
3.876282e+003,3.149450e+001
3.878210e+003,3.267705e+001
3.880139e+003,3.272210e+001
3.882067e+003,3.223767e+001
3.883996e+003,3.279116e+001
3.885925e+003,3.134361e+001
3.887853e+003,3.153015e+001
3.889781e+003,3.252665e+001
3.891710e+003,3.179410e+001
3.893638e+003,3.134345e+001
3.895567e+003,3.180970e+001
3.897495e+003,3.255819e+001
3.899424e+003,3.261992e+001
3.901353e+003,3.264049e+001
3.903281e+003,3.271008e+001
3.905209e+003,3.162343e+001
3.907138e+003,3.128018e+001
3.909066e+003,3.132664e+001
3.910995e+003,3.133443e+001
3.912924e+003,3.148455e+001
3.914852e+003,3.201288e+001
3.916781e+003,3.187986e+001
3.918709e+003,3.155782e+001
3.920637e+003,3.147769e+001
3.922566e+003,3.198754e+001
3.924494e+003,3.167439e+001
3.926423e+003,3.118974e+001
3.928352e+003,3.169343e+001
3.930280e+003,3.189485e+001
3.932208e+003,3.135907e+001
3.934137e+003,3.086048e+001
3.936065e+003,3.119607e+001
3.937994e+003,3.122720e+001
3.939922e+003,3.143656e+001
3.941851e+003,3.153283e+001
3.943780e+003,3.095612e+001
3.945708e+003,3.120864e+001
3.947636e+003,3.146463e+001
3.949565e+003,3.111458e+001
3.951493e+003,3.100340e+001
3.953422e+003,3.097167e+001
3.955350e+003,3.095608e+001
3.957279e+003,3.087048e+001
3.959208e+003,3.103936e+001
3.961136e+003,3.110031e+001
3.963064e+003,3.078095e+001
3.964993e+003,3.074255e+001
3.966921e+003,3.079870e+001
3.968850e+003,3.084357e+001
3.970778e+003,3.083961e+001
3.972707e+003,3.087336e+001
3.974635e+003,3.087684e+001
3.976564e+003,3.082675e+001
3.978492e+003,3.077549e+001
3.980421e+003,3.080418e+001
3.982349e+003,3.079278e+001
3.984278e+003,3.066317e+001
3.986206e+003,3.059840e+001
3.988135e+003,3.062944e+001
3.990063e+003,3.063352e+001
3.991992e+003,3.069721e+001
3.993920e+003,3.064878e+001
3.995849e+003,3.058776e+001
3.997777e+003,3.067316e+001
3.999706e+003,3.052658e+001
