3.991992e+002,4.759837e+001
4.011277e+002,4.554506e+001
4.030562e+002,4.357576e+001
4.049847e+002,4.064288e+001
4.069132e+002,3.824267e+001
4.088417e+002,3.586042e+001
4.107702e+002,3.370224e+001
4.126987e+002,3.217488e+001
4.146272e+002,3.093705e+001
4.165557e+002,2.960554e+001
4.184842e+002,2.811760e+001
4.204127e+002,2.550160e+001
4.223412e+002,2.483123e+001
4.242697e+002,2.441535e+001
4.261982e+002,2.506465e+001
4.281267e+002,2.585848e+001
4.300552e+002,2.679721e+001
4.319837e+002,2.754294e+001
4.339122e+002,2.773509e+001
4.358407e+002,2.810748e+001
4.377692e+002,2.817690e+001
4.396977e+002,2.858128e+001
4.416262e+002,2.885347e+001
4.435547e+002,2.834249e+001
4.454832e+002,2.816758e+001
4.474117e+002,2.837868e+001
4.493401e+002,2.795744e+001
4.512686e+002,2.717951e+001
4.531971e+002,2.610299e+001
4.551256e+002,2.438791e+001
4.570541e+002,2.236645e+001
4.589826e+002,2.025615e+001
4.609111e+002,1.923324e+001
4.628396e+002,1.817673e+001
4.647681e+002,1.786996e+001
4.666966e+002,1.833781e+001
4.686251e+002,1.960030e+001
4.705536e+002,2.082979e+001
4.724821e+002,2.273377e+001
4.744106e+002,2.453254e+001
4.763391e+002,2.658629e+001
4.782676e+002,2.879050e+001
4.801961e+002,3.074062e+001
4.821246e+002,3.240572e+001
4.840531e+002,3.425980e+001
4.859816e+002,3.612309e+001
4.879101e+002,3.821398e+001
4.898386e+002,4.069773e+001
4.917671e+002,4.367318e+001
4.936956e+002,4.665825e+001
4.956241e+002,4.983933e+001
4.975526e+002,5.329821e+001
4.994811e+002,5.670563e+001
5.014096e+002,5.971541e+001
5.033381e+002,6.232100e+001
5.052666e+002,6.447429e+001
5.071951e+002,6.641305e+001
5.091236e+002,6.844381e+001
5.110521e+002,7.039919e+001
5.129806e+002,7.222975e+001
5.149091e+002,7.385815e+001
5.168376e+002,7.574141e+001
5.187661e+002,7.786850e+001
5.206946e+002,7.995930e+001
5.226231e+002,8.204429e+001
5.245516e+002,8.418501e+001
5.264801e+002,8.667271e+001
5.284086e+002,8.908477e+001
5.303371e+002,9.137110e+001
5.322656e+002,9.371826e+001
5.341941e+002,9.572746e+001
5.361226e+002,9.743539e+001
5.380511e+002,9.868826e+001
5.399796e+002,9.901996e+001
5.419081e+002,9.794468e+001
5.438365e+002,9.562428e+001
5.457651e+002,9.148683e+001
5.476936e+002,8.561374e+001
5.496221e+002,7.886333e+001
5.515506e+002,7.155600e+001
5.534791e+002,6.420743e+001
5.554076e+002,5.752466e+001
5.573361e+002,5.269795e+001
5.592646e+002,5.024293e+001
5.611931e+002,5.019466e+001
5.631216e+002,5.249020e+001
5.650500e+002,5.630441e+001
5.669786e+002,6.114645e+001
5.689070e+002,6.667142e+001
5.708356e+002,7.212082e+001
5.727640e+002,7.705064e+001
5.746926e+002,8.146961e+001
5.766210e+002,8.538210e+001
5.785496e+002,8.861028e+001
5.804780e+002,9.096482e+001
5.824066e+002,9.236227e+001
5.843350e+002,9.247874e+001
5.862635e+002,9.130872e+001
5.881920e+002,8.843082e+001
5.901205e+002,8.410702e+001
5.920490e+002,7.820120e+001
5.939775e+002,7.141972e+001
5.959060e+002,6.446659e+001
5.978345e+002,5.864737e+001
5.997631e+002,5.507755e+001
6.016915e+002,5.477144e+001
6.036201e+002,5.739874e+001
6.055485e+002,6.199201e+001
6.074771e+002,6.699653e+001
6.094055e+002,7.150354e+001
6.113340e+002,7.492150e+001
6.132625e+002,7.703489e+001
6.151910e+002,7.747921e+001
6.171195e+002,7.628979e+001
6.190480e+002,7.417986e+001
6.209765e+002,7.151601e+001
6.229050e+002,6.895507e+001
6.248335e+002,6.836513e+001
6.267620e+002,7.027061e+001
6.286905e+002,7.407254e+001
6.306190e+002,7.789428e+001
6.325475e+002,8.021666e+001
6.344760e+002,8.049268e+001
6.364045e+002,7.926077e+001
6.383330e+002,7.677486e+001
6.402615e+002,7.371569e+001
6.421900e+002,7.016669e+001
6.441185e+002,6.697387e+001
6.460470e+002,6.418217e+001
6.479755e+002,6.173888e+001
6.499040e+002,5.927619e+001
6.518325e+002,5.696172e+001
6.537610e+002,5.395616e+001
6.556895e+002,5.057456e+001
6.576180e+002,4.697165e+001
6.595465e+002,4.358261e+001
6.614750e+002,4.037558e+001
6.634035e+002,3.785578e+001
6.653320e+002,3.624363e+001
6.672605e+002,3.408891e+001
6.691890e+002,3.125833e+001
6.711175e+002,3.143913e+001
6.730460e+002,3.088557e+001
6.749745e+002,3.019057e+001
6.769030e+002,2.990141e+001
6.788315e+002,3.001901e+001
6.807599e+002,2.998966e+001
6.826885e+002,2.990796e+001
6.846169e+002,2.955974e+001
6.865455e+002,2.930699e+001
6.884739e+002,2.941483e+001
6.904025e+002,2.995103e+001
6.923309e+002,3.067300e+001
6.942595e+002,3.156159e+001
6.961880e+002,3.216162e+001
6.981165e+002,3.280998e+001
7.000450e+002,3.397746e+001
7.019734e+002,3.605506e+001
7.039020e+002,3.891985e+001
7.058304e+002,4.232798e+001
7.077590e+002,4.570141e+001
7.096874e+002,4.838954e+001
7.116160e+002,5.001413e+001
7.135444e+002,5.046328e+001
7.154730e+002,5.030871e+001
7.174014e+002,5.023309e+001
7.193300e+002,5.072559e+001
7.212584e+002,5.267694e+001
7.231870e+002,5.564782e+001
7.251154e+002,5.859858e+001
7.270439e+002,6.140258e+001
7.289724e+002,6.400574e+001
7.309009e+002,6.640099e+001
7.328294e+002,6.844898e+001
7.347579e+002,7.042435e+001
7.366864e+002,7.235957e+001
7.386149e+002,7.418264e+001
7.405434e+002,7.587331e+001
7.424719e+002,7.755568e+001
7.444004e+002,7.911063e+001
7.463289e+002,8.068683e+001
7.482574e+002,8.226164e+001
7.501859e+002,8.379254e+001
7.521144e+002,8.517439e+001
7.540429e+002,8.666239e+001
7.559714e+002,8.808602e+001
7.578999e+002,8.938122e+001
7.598284e+002,9.051247e+001
7.617569e+002,9.169826e+001
7.636854e+002,9.285339e+001
7.656139e+002,9.398853e+001
7.675424e+002,9.508475e+001
7.694709e+002,9.614671e+001
7.713994e+002,9.698986e+001
7.733279e+002,9.779229e+001
7.752564e+002,9.846618e+001
7.771849e+002,9.906669e+001
7.791134e+002,9.948186e+001
7.810419e+002,9.983179e+001
7.829704e+002,1.000000e+002
7.848989e+002,9.996204e+001
7.868274e+002,9.968789e+001
7.887559e+002,9.940144e+001
7.906844e+002,9.880088e+001
7.926129e+002,9.808255e+001
7.945414e+002,9.728722e+001
7.964699e+002,9.644970e+001
7.983984e+002,9.541855e+001
8.003269e+002,9.440429e+001
8.022554e+002,9.334512e+001
8.041839e+002,9.211855e+001
8.061124e+002,9.078762e+001
8.080409e+002,8.958639e+001
8.099694e+002,8.836531e+001
8.118979e+002,8.709743e+001
8.138264e+002,8.575328e+001
8.157549e+002,8.448782e+001
8.176833e+002,8.320300e+001
8.196119e+002,8.192090e+001
8.215403e+002,8.063952e+001
8.234689e+002,7.939584e+001
8.253973e+002,7.806951e+001
8.273259e+002,7.682951e+001
8.292543e+002,7.561928e+001
8.311829e+002,7.433811e+001
8.331113e+002,7.305350e+001
8.350399e+002,7.183398e+001
8.369683e+002,7.065263e+001
8.388969e+002,6.944308e+001
8.408253e+002,6.822752e+001
8.427538e+002,6.704507e+001
8.446824e+002,6.582816e+001
8.466108e+002,6.461000e+001
8.485394e+002,6.343470e+001
8.504678e+002,6.229066e+001
8.523964e+002,6.108939e+001
8.543248e+002,5.990074e+001
8.562534e+002,5.873078e+001
8.581818e+002,5.760048e+001
8.601104e+002,5.647587e+001
8.620388e+002,5.531849e+001
8.639673e+002,5.419682e+001
8.658958e+002,5.304047e+001
8.678243e+002,5.187553e+001
8.697528e+002,5.069161e+001
8.716813e+002,4.952869e+001
8.736098e+002,4.835180e+001
8.755383e+002,4.714383e+001
8.774668e+002,4.593969e+001
8.793953e+002,4.474096e+001
8.813238e+002,4.358582e+001
8.832523e+002,4.247068e+001
8.851808e+002,4.130732e+001
8.871093e+002,4.010916e+001
8.890378e+002,3.893095e+001
8.909663e+002,3.784137e+001
8.928948e+002,3.674221e+001
8.948233e+002,3.564403e+001
8.967518e+002,3.462540e+001
8.986803e+002,3.361911e+001
9.006088e+002,3.251885e+001
9.025373e+002,3.151137e+001
9.044658e+002,3.052469e+001
9.063943e+002,2.951629e+001
9.083228e+002,2.844905e+001
9.102513e+002,2.741223e+001
9.121798e+002,2.639902e+001
9.141083e+002,2.543750e+001
9.160368e+002,2.446412e+001
9.179653e+002,2.349213e+001
9.198938e+002,2.249534e+001
9.218223e+002,2.149869e+001
9.237508e+002,2.044824e+001
9.256793e+002,1.942567e+001
9.276078e+002,1.839993e+001
9.295363e+002,1.745552e+001
9.314648e+002,1.650880e+001
9.333932e+002,1.573224e+001
9.353218e+002,1.503041e+001
9.372502e+002,1.444251e+001
9.391788e+002,1.394440e+001
9.411072e+002,1.360117e+001
9.430358e+002,1.323545e+001
9.449643e+002,1.289944e+001
9.468928e+002,1.260645e+001
9.488213e+002,1.241698e+001
9.507498e+002,1.219460e+001
9.526783e+002,1.194473e+001
9.546068e+002,1.157794e+001
9.565353e+002,1.122433e+001
9.584637e+002,1.082525e+001
9.603923e+002,1.053483e+001
9.623207e+002,1.029756e+001
9.642493e+002,1.015469e+001
9.661777e+002,1.003091e+001
9.681063e+002,1.000000e+001
9.700347e+002,1.000786e+001
9.719633e+002,1.008508e+001
9.738917e+002,1.021902e+001
9.758203e+002,1.047361e+001
9.777487e+002,1.078036e+001
9.796772e+002,1.113813e+001
9.816057e+002,1.137003e+001
9.835342e+002,1.162127e+001
9.854627e+002,1.175848e+001
9.873912e+002,1.190564e+001
9.893197e+002,1.196688e+001
9.912482e+002,1.197219e+001
9.931768e+002,1.192887e+001
9.951052e+002,1.179151e+001
9.970338e+002,1.150965e+001
9.989622e+002,1.123957e+001
1.000891e+003,1.096560e+001
1.002819e+003,1.073226e+001
1.004748e+003,1.051987e+001
1.006676e+003,1.054646e+001
1.008605e+003,1.072834e+001
1.010533e+003,1.104762e+001
1.012462e+003,1.133758e+001
1.014390e+003,1.164878e+001
1.016319e+003,1.189832e+001
1.018247e+003,1.216005e+001
1.020176e+003,1.246601e+001
1.022104e+003,1.281032e+001
1.024033e+003,1.313396e+001
1.025961e+003,1.346664e+001
1.027890e+003,1.376005e+001
1.029818e+003,1.409839e+001
1.031747e+003,1.440558e+001
1.033675e+003,1.472801e+001
1.035604e+003,1.495880e+001
1.037532e+003,1.527966e+001
1.039461e+003,1.570643e+001
1.041389e+003,1.620824e+001
1.043318e+003,1.669575e+001
1.045246e+003,1.731083e+001
1.047175e+003,1.798195e+001
1.049103e+003,1.874320e+001
1.051032e+003,1.952585e+001
1.052960e+003,2.035655e+001
1.054889e+003,2.119362e+001
1.056817e+003,2.201506e+001
1.058746e+003,2.276776e+001
1.060674e+003,2.349171e+001
1.062603e+003,2.402078e+001
1.064531e+003,2.443989e+001
1.066460e+003,2.468140e+001
1.068388e+003,2.479500e+001
1.070317e+003,2.479767e+001
1.072245e+003,2.484475e+001
1.074174e+003,2.493972e+001
1.076102e+003,2.518841e+001
1.078031e+003,2.545189e+001
1.079959e+003,2.582652e+001
1.081888e+003,2.625249e+001
1.083816e+003,2.671224e+001
1.085745e+003,2.714753e+001
1.087673e+003,2.760863e+001
1.089602e+003,2.802582e+001
1.091530e+003,2.845456e+001
1.093459e+003,2.887289e+001
1.095387e+003,2.928631e+001
1.097316e+003,2.960551e+001
1.099244e+003,2.992229e+001
1.101173e+003,3.016231e+001
1.103101e+003,3.035825e+001
1.105030e+003,3.042999e+001
1.106958e+003,3.031450e+001
1.108887e+003,3.004636e+001
1.110815e+003,2.970593e+001
1.112744e+003,2.918935e+001
1.114672e+003,2.861903e+001
1.116601e+003,2.806310e+001
1.118529e+003,2.759676e+001
1.120458e+003,2.724761e+001
1.122386e+003,2.708210e+001
1.124315e+003,2.707154e+001
1.126243e+003,2.722912e+001
1.128172e+003,2.743324e+001
1.130100e+003,2.776991e+001
1.132029e+003,2.818429e+001
1.133957e+003,2.861723e+001
1.135886e+003,2.899038e+001
1.137814e+003,2.943914e+001
1.139743e+003,2.980801e+001
1.141671e+003,3.014058e+001
1.143600e+003,3.045740e+001
1.145528e+003,3.071173e+001
1.147457e+003,3.088557e+001
1.149385e+003,3.104402e+001
1.151314e+003,3.118809e+001
1.153242e+003,3.140791e+001
1.155171e+003,3.163514e+001
1.157099e+003,3.194370e+001
1.159028e+003,3.226866e+001
1.160956e+003,3.265232e+001
1.162885e+003,3.305564e+001
1.164813e+003,3.346180e+001
1.166742e+003,3.382297e+001
1.168670e+003,3.423457e+001
1.170599e+003,3.463906e+001
1.172527e+003,3.505592e+001
1.174456e+003,3.545409e+001
1.176384e+003,3.585617e+001
1.178313e+003,3.628088e+001
1.180241e+003,3.670311e+001
1.182170e+003,3.703863e+001
1.184098e+003,3.741706e+001
1.186027e+003,3.777770e+001
1.187955e+003,3.814043e+001
1.189884e+003,3.850826e+001
1.191812e+003,3.885630e+001
1.193741e+003,3.917092e+001
1.195669e+003,3.953650e+001
1.197598e+003,3.981628e+001
1.199526e+003,4.008480e+001
1.201455e+003,4.034145e+001
1.203383e+003,4.064659e+001
1.205312e+003,4.094603e+001
1.207240e+003,4.122311e+001
1.209169e+003,4.147455e+001
1.211097e+003,4.174000e+001
1.213026e+003,4.196316e+001
1.214954e+003,4.223360e+001
1.216883e+003,4.245057e+001
1.218811e+003,4.266248e+001
1.220740e+003,4.287790e+001
1.222668e+003,4.309558e+001
1.224597e+003,4.329375e+001
1.226525e+003,4.351695e+001
1.228453e+003,4.372863e+001
1.230382e+003,4.394309e+001
1.232311e+003,4.415073e+001
1.234239e+003,4.435825e+001
1.236167e+003,4.455492e+001
1.238096e+003,4.475822e+001
1.240025e+003,4.489844e+001
1.241953e+003,4.508099e+001
1.243882e+003,4.527414e+001
1.245810e+003,4.545714e+001
1.247739e+003,4.561354e+001
1.249667e+003,4.578621e+001
1.251596e+003,4.594554e+001
1.253524e+003,4.609048e+001
1.255453e+003,4.627109e+001
1.257381e+003,4.648705e+001
1.259310e+003,4.661712e+001
1.261238e+003,4.672519e+001
1.263167e+003,4.685442e+001
1.265095e+003,4.701717e+001
1.267024e+003,4.718935e+001
1.268952e+003,4.736271e+001
1.270880e+003,4.746919e+001
1.272809e+003,4.759415e+001
1.274738e+003,4.773360e+001
1.276666e+003,4.789824e+001
1.278594e+003,4.804278e+001
1.280523e+003,4.816581e+001
1.282452e+003,4.826864e+001
1.284380e+003,4.842398e+001
1.286308e+003,4.858038e+001
1.288237e+003,4.867352e+001
1.290166e+003,4.875158e+001
1.292094e+003,4.888148e+001
1.294022e+003,4.900322e+001
1.295951e+003,4.912226e+001
1.297880e+003,4.923139e+001
1.299808e+003,4.936801e+001
1.301736e+003,4.945937e+001
1.303665e+003,4.952473e+001
1.305594e+003,4.960850e+001
1.307522e+003,4.975239e+001
1.309450e+003,4.986462e+001
1.311379e+003,4.996021e+001
1.313307e+003,4.999532e+001
1.315236e+003,5.008510e+001
1.317164e+003,5.016210e+001
1.319093e+003,5.021243e+001
1.321021e+003,5.032631e+001
1.322950e+003,5.048271e+001
1.324878e+003,5.057619e+001
1.326807e+003,5.069713e+001
1.328735e+003,5.077502e+001
1.330664e+003,5.084636e+001
1.332592e+003,5.091764e+001
1.334521e+003,5.102896e+001
1.336449e+003,5.108088e+001
1.338378e+003,5.103783e+001
1.340307e+003,5.096140e+001
1.342235e+003,5.119816e+001
1.344163e+003,5.137041e+001
1.346092e+003,5.145090e+001
1.348021e+003,5.151149e+001
1.349949e+003,5.159097e+001
1.351877e+003,5.169967e+001
1.353806e+003,5.175653e+001
1.355734e+003,5.176549e+001
1.357663e+003,5.184988e+001
1.359591e+003,5.197601e+001
1.361520e+003,5.200857e+001
1.363448e+003,5.183806e+001
1.365377e+003,5.202609e+001
1.367305e+003,5.216273e+001
1.369234e+003,5.215060e+001
1.371162e+003,5.228199e+001
1.373091e+003,5.231012e+001
1.375019e+003,5.210331e+001
1.376948e+003,5.229711e+001
1.378876e+003,5.240754e+001
1.380805e+003,5.248670e+001
1.382733e+003,5.257698e+001
1.384662e+003,5.271959e+001
1.386590e+003,5.264941e+001
1.388519e+003,5.257533e+001
1.390447e+003,5.283043e+001
1.392376e+003,5.302699e+001
1.394304e+003,5.288016e+001
1.396233e+003,5.274481e+001
1.398161e+003,5.287024e+001
1.400090e+003,5.282727e+001
1.402018e+003,5.310946e+001
1.403947e+003,5.318180e+001
1.405875e+003,5.304457e+001
1.407804e+003,5.320808e+001
1.409732e+003,5.330339e+001
1.411661e+003,5.326572e+001
1.413589e+003,5.337810e+001
1.415518e+003,5.353098e+001
1.417446e+003,5.352996e+001
1.419375e+003,5.307126e+001
1.421303e+003,5.327179e+001
1.423232e+003,5.352521e+001
1.425160e+003,5.345914e+001
1.427089e+003,5.371055e+001
1.429017e+003,5.371142e+001
1.430946e+003,5.365208e+001
1.432874e+003,5.383567e+001
1.434803e+003,5.411620e+001
1.436731e+003,5.374242e+001
1.438660e+003,5.373818e+001
1.440588e+003,5.404344e+001
1.442517e+003,5.416198e+001
1.444445e+003,5.425588e+001
1.446374e+003,5.430742e+001
1.448302e+003,5.412019e+001
1.450231e+003,5.421391e+001
1.452159e+003,5.432228e+001
1.454088e+003,5.455070e+001
1.456016e+003,5.462261e+001
1.457945e+003,5.353459e+001
1.459873e+003,5.386940e+001
1.461802e+003,5.445137e+001
1.463730e+003,5.462520e+001
1.465659e+003,5.429350e+001
1.467587e+003,5.449622e+001
1.469516e+003,5.484966e+001
1.471444e+003,5.485275e+001
1.473373e+003,5.407455e+001
1.475301e+003,5.434023e+001
1.477230e+003,5.455640e+001
1.479158e+003,5.483092e+001
1.481087e+003,5.483251e+001
1.483015e+003,5.484726e+001
1.484944e+003,5.508067e+001
1.486872e+003,5.508165e+001
1.488801e+003,5.479243e+001
1.490729e+003,5.438546e+001
1.492658e+003,5.487527e+001
1.494586e+003,5.529770e+001
1.496515e+003,5.498790e+001
1.498443e+003,5.470695e+001
1.500372e+003,5.485981e+001
1.502300e+003,5.516759e+001
1.504229e+003,5.561510e+001
1.506157e+003,5.535144e+001
1.508086e+003,5.385662e+001
1.510014e+003,5.466144e+001
1.511943e+003,5.507481e+001
1.513871e+003,5.535412e+001
1.515800e+003,5.536920e+001
1.517728e+003,5.498131e+001
1.519657e+003,5.543398e+001
1.521585e+003,5.476696e+001
1.523514e+003,5.485427e+001
1.525442e+003,5.523271e+001
1.527371e+003,5.518138e+001
1.529299e+003,5.540488e+001
1.531228e+003,5.581189e+001
1.533156e+003,5.550905e+001
1.535085e+003,5.529363e+001
1.537013e+003,5.598749e+001
1.538942e+003,5.612767e+001
1.540870e+003,5.452837e+001
1.542799e+003,5.484808e+001
1.544727e+003,5.508505e+001
1.546656e+003,5.554918e+001
1.548584e+003,5.594946e+001
1.550513e+003,5.568867e+001
1.552441e+003,5.590460e+001
1.554370e+003,5.581535e+001
1.556298e+003,5.607586e+001
1.558227e+003,5.626723e+001
1.560155e+003,5.460876e+001
1.562084e+003,5.559415e+001
1.564012e+003,5.593525e+001
1.565941e+003,5.589850e+001
1.567869e+003,5.616082e+001
1.569798e+003,5.562628e+001
1.571726e+003,5.575292e+001
1.573655e+003,5.624238e+001
1.575583e+003,5.597068e+001
1.577512e+003,5.536012e+001
1.579440e+003,5.581031e+001
1.581369e+003,5.600554e+001
1.583297e+003,5.600663e+001
1.585226e+003,5.593790e+001
1.587154e+003,5.589263e+001
1.589083e+003,5.583966e+001
1.591011e+003,5.579578e+001
1.592940e+003,5.577238e+001
1.594868e+003,5.566200e+001
1.596797e+003,5.559853e+001
1.598725e+003,5.561642e+001
1.600654e+003,5.555676e+001
1.602582e+003,5.543483e+001
1.604511e+003,5.537007e+001
1.606439e+003,5.535492e+001
1.608368e+003,5.516392e+001
1.610296e+003,5.502612e+001
1.612225e+003,5.502732e+001
1.614153e+003,5.520139e+001
1.616082e+003,5.478836e+001
1.618010e+003,5.408691e+001
1.619939e+003,5.446623e+001
1.621867e+003,5.454253e+001
1.623796e+003,5.395703e+001
1.625724e+003,5.411919e+001
1.627653e+003,5.406064e+001
1.629581e+003,5.396331e+001
1.631510e+003,5.421851e+001
1.633438e+003,5.444096e+001
1.635367e+003,5.386864e+001
1.637295e+003,5.316748e+001
1.639224e+003,5.374708e+001
1.641152e+003,5.400046e+001
1.643081e+003,5.423009e+001
1.645009e+003,5.444018e+001
1.646938e+003,5.355498e+001
1.648866e+003,5.359649e+001
1.650795e+003,5.456426e+001
1.652723e+003,5.436651e+001
1.654652e+003,5.319577e+001
1.656580e+003,5.406162e+001
1.658509e+003,5.453996e+001
1.660437e+003,5.476059e+001
1.662366e+003,5.452148e+001
1.664294e+003,5.440834e+001
1.666223e+003,5.493240e+001
1.668151e+003,5.495965e+001
1.670080e+003,5.429948e+001
1.672008e+003,5.452446e+001
1.673937e+003,5.500246e+001
1.675865e+003,5.462930e+001
1.677794e+003,5.497457e+001
1.679722e+003,5.518998e+001
1.681651e+003,5.542662e+001
1.683579e+003,5.524677e+001
1.685508e+003,5.438692e+001
1.687436e+003,5.509204e+001
1.689365e+003,5.524259e+001
1.691293e+003,5.538515e+001
1.693222e+003,5.585452e+001
1.695150e+003,5.586380e+001
1.697079e+003,5.517524e+001
1.699007e+003,5.565139e+001
1.700936e+003,5.506733e+001
1.702864e+003,5.553401e+001
1.704793e+003,5.574379e+001
1.706721e+003,5.550283e+001
1.708650e+003,5.587235e+001
1.710578e+003,5.605523e+001
1.712507e+003,5.629562e+001
1.714435e+003,5.624572e+001
1.716364e+003,5.593858e+001
1.718292e+003,5.536311e+001
1.720221e+003,5.587699e+001
1.722149e+003,5.630942e+001
1.724078e+003,5.629203e+001
1.726006e+003,5.642247e+001
1.727935e+003,5.659850e+001
1.729863e+003,5.651249e+001
1.731792e+003,5.666439e+001
1.733720e+003,5.623240e+001
1.735649e+003,5.582033e+001
1.737577e+003,5.654857e+001
1.739506e+003,5.640873e+001
1.741434e+003,5.639478e+001
1.743363e+003,5.647029e+001
1.745291e+003,5.653185e+001
1.747220e+003,5.662267e+001
1.749148e+003,5.645654e+001
1.751077e+003,5.632109e+001
1.753005e+003,5.648543e+001
1.754934e+003,5.692437e+001
1.756862e+003,5.671720e+001
1.758791e+003,5.679535e+001
1.760719e+003,5.694338e+001
1.762648e+003,5.665738e+001
1.764576e+003,5.692992e+001
1.766505e+003,5.717352e+001
1.768433e+003,5.700041e+001
1.770362e+003,5.711311e+001
1.772290e+003,5.656512e+001
1.774219e+003,5.656555e+001
1.776147e+003,5.687613e+001
1.778076e+003,5.710923e+001
1.780004e+003,5.707106e+001
1.781933e+003,5.697614e+001
1.783861e+003,5.709865e+001
1.785790e+003,5.700838e+001
1.787718e+003,5.718801e+001
1.789647e+003,5.739196e+001
1.791575e+003,5.706299e+001
1.793504e+003,5.671365e+001
1.795432e+003,5.696983e+001
1.797361e+003,5.714170e+001
1.799289e+003,5.721085e+001
1.801218e+003,5.699809e+001
1.803146e+003,5.706606e+001
1.805075e+003,5.724164e+001
1.807003e+003,5.734536e+001
1.808932e+003,5.735351e+001
1.810860e+003,5.720452e+001
1.812789e+003,5.716683e+001
1.814717e+003,5.738430e+001
1.816646e+003,5.739661e+001
1.818574e+003,5.737896e+001
1.820503e+003,5.742996e+001
1.822431e+003,5.755300e+001
1.824360e+003,5.742488e+001
1.826288e+003,5.728136e+001
1.828217e+003,5.749858e+001
1.830145e+003,5.712361e+001
1.832074e+003,5.719893e+001
1.834002e+003,5.746082e+001
1.835931e+003,5.749051e+001
1.837859e+003,5.742174e+001
1.839788e+003,5.747387e+001
1.841716e+003,5.768613e+001
1.843645e+003,5.743700e+001
1.845573e+003,5.714170e+001
1.847502e+003,5.732499e+001
1.849430e+003,5.737922e+001
1.851359e+003,5.748461e+001
1.853287e+003,5.749760e+001
1.855216e+003,5.752894e+001
1.857144e+003,5.754834e+001
1.859073e+003,5.752531e+001
1.861001e+003,5.748540e+001
1.862930e+003,5.752428e+001
1.864858e+003,5.762897e+001
1.866786e+003,5.759963e+001
1.868715e+003,5.718483e+001
1.870644e+003,5.711812e+001
1.872572e+003,5.739727e+001
1.874500e+003,5.748766e+001
1.876429e+003,5.749186e+001
1.878358e+003,5.747045e+001
1.880286e+003,5.746709e+001
1.882215e+003,5.746684e+001
1.884143e+003,5.741409e+001
1.886072e+003,5.743171e+001
1.888000e+003,5.750420e+001
1.889929e+003,5.724881e+001
1.891857e+003,5.727364e+001
1.893786e+003,5.736113e+001
1.895714e+003,5.724656e+001
1.897643e+003,5.728394e+001
1.899571e+003,5.728868e+001
1.901500e+003,5.725444e+001
1.903428e+003,5.723322e+001
1.905357e+003,5.722475e+001
1.907285e+003,5.719989e+001
1.909214e+003,5.706864e+001
1.911142e+003,5.701741e+001
1.913071e+003,5.710531e+001
1.914999e+003,5.717037e+001
1.916927e+003,5.714835e+001
1.918856e+003,5.691397e+001
1.920785e+003,5.707359e+001
1.922713e+003,5.694034e+001
1.924641e+003,5.688968e+001
1.926570e+003,5.702718e+001
1.928499e+003,5.702795e+001
1.930427e+003,5.701973e+001
1.932355e+003,5.700586e+001
1.934284e+003,5.698520e+001
1.936213e+003,5.699809e+001
1.938141e+003,5.701089e+001
1.940069e+003,5.708352e+001
1.941998e+003,5.695639e+001
1.943927e+003,5.679789e+001
1.945855e+003,5.687181e+001
1.947783e+003,5.690549e+001
1.949712e+003,5.695303e+001
1.951641e+003,5.693859e+001
1.953569e+003,5.693291e+001
1.955497e+003,5.688540e+001
1.957426e+003,5.692205e+001
1.959354e+003,5.693798e+001
1.961283e+003,5.691399e+001
1.963211e+003,5.690591e+001
1.965140e+003,5.689945e+001
1.967068e+003,5.678306e+001
1.968997e+003,5.677974e+001
1.970925e+003,5.685745e+001
1.972854e+003,5.688607e+001
1.974782e+003,5.687477e+001
1.976711e+003,5.686668e+001
1.978639e+003,5.686542e+001
1.980568e+003,5.686261e+001
1.982496e+003,5.685155e+001
1.984425e+003,5.684142e+001
1.986354e+003,5.686262e+001
1.988282e+003,5.682232e+001
1.990210e+003,5.683289e+001
1.992139e+003,5.672172e+001
1.994068e+003,5.671358e+001
1.995996e+003,5.682186e+001
1.997924e+003,5.679265e+001
1.999853e+003,5.677572e+001
2.001781e+003,5.678798e+001
2.003710e+003,5.679268e+001
2.005638e+003,5.676105e+001
2.007567e+003,5.676494e+001
2.009495e+003,5.673746e+001
2.011424e+003,5.673534e+001
2.013352e+003,5.675763e+001
2.015281e+003,5.675773e+001
2.017209e+003,5.665600e+001
2.019138e+003,5.666156e+001
2.021066e+003,5.671372e+001
2.022995e+003,5.671898e+001
2.024923e+003,5.669439e+001
2.026852e+003,5.669616e+001
2.028780e+003,5.669061e+001
2.030709e+003,5.667318e+001
2.032637e+003,5.667016e+001
2.034566e+003,5.668082e+001
2.036494e+003,5.666947e+001
2.038423e+003,5.665675e+001
2.040351e+003,5.663138e+001
2.042280e+003,5.660170e+001
2.044208e+003,5.661404e+001
2.046137e+003,5.662105e+001
2.048065e+003,5.663547e+001
2.049994e+003,5.664512e+001
2.051922e+003,5.663013e+001
2.053851e+003,5.663491e+001
2.055779e+003,5.663749e+001
2.057708e+003,5.663915e+001
2.059636e+003,5.662812e+001
2.061565e+003,5.663530e+001
2.063493e+003,5.664041e+001
2.065422e+003,5.659730e+001
2.067350e+003,5.661987e+001
2.069279e+003,5.664930e+001
2.071207e+003,5.662859e+001
2.073136e+003,5.665078e+001
2.075064e+003,5.664999e+001
2.076993e+003,5.661606e+001
2.078921e+003,5.660771e+001
2.080850e+003,5.662620e+001
2.082778e+003,5.662071e+001
2.084707e+003,5.662443e+001
2.086635e+003,5.662487e+001
2.088564e+003,5.663790e+001
2.090492e+003,5.661082e+001
2.092421e+003,5.661192e+001
2.094349e+003,5.662452e+001
2.096278e+003,5.662107e+001
2.098206e+003,5.658575e+001
2.100135e+003,5.657899e+001
2.102063e+003,5.659998e+001
2.103992e+003,5.661607e+001
2.105920e+003,5.659618e+001
2.107849e+003,5.658616e+001
2.109777e+003,5.658684e+001
2.111706e+003,5.657164e+001
2.113634e+003,5.657457e+001
2.115563e+003,5.655343e+001
2.117491e+003,5.652640e+001
2.119420e+003,5.652908e+001
2.121348e+003,5.653871e+001
2.123277e+003,5.653456e+001
2.125205e+003,5.651294e+001
2.127134e+003,5.651007e+001
2.129062e+003,5.650547e+001
2.130991e+003,5.651187e+001
2.132919e+003,5.649641e+001
2.134848e+003,5.648758e+001
2.136776e+003,5.646700e+001
2.138705e+003,5.646075e+001
2.140633e+003,5.644622e+001
2.142562e+003,5.643074e+001
2.144490e+003,5.643673e+001
2.146419e+003,5.644589e+001
2.148347e+003,5.643473e+001
2.150276e+003,5.642824e+001
2.152204e+003,5.643175e+001
2.154133e+003,5.639766e+001
2.156061e+003,5.637803e+001
2.157990e+003,5.635822e+001
2.159918e+003,5.632800e+001
2.161847e+003,5.634282e+001
2.163775e+003,5.634286e+001
2.165704e+003,5.633081e+001
2.167632e+003,5.630607e+001
2.169561e+003,5.628870e+001
2.171489e+003,5.629673e+001
2.173418e+003,5.628547e+001
2.175346e+003,5.628350e+001
2.177275e+003,5.628006e+001
2.179203e+003,5.624080e+001
2.181132e+003,5.622255e+001
2.183060e+003,5.622828e+001
2.184989e+003,5.621816e+001
2.186917e+003,5.619533e+001
2.188846e+003,5.618624e+001
2.190774e+003,5.619418e+001
2.192703e+003,5.620169e+001
2.194631e+003,5.617226e+001
2.196560e+003,5.615969e+001
2.198488e+003,5.615423e+001
2.200417e+003,5.614793e+001
2.202345e+003,5.614107e+001
2.204274e+003,5.610980e+001
2.206202e+003,5.609914e+001
2.208131e+003,5.609188e+001
2.210059e+003,5.608565e+001
2.211988e+003,5.610053e+001
2.213916e+003,5.607232e+001
2.215845e+003,5.602153e+001
2.217773e+003,5.600038e+001
2.219702e+003,5.599962e+001
2.221630e+003,5.599549e+001
2.223559e+003,5.598561e+001
2.225487e+003,5.597346e+001
2.227416e+003,5.598439e+001
2.229344e+003,5.598635e+001
2.231273e+003,5.595259e+001
2.233201e+003,5.592427e+001
2.235130e+003,5.590866e+001
2.237058e+003,5.588599e+001
2.238987e+003,5.587965e+001
2.240915e+003,5.586997e+001
2.242844e+003,5.584639e+001
2.244772e+003,5.579910e+001
2.246701e+003,5.576643e+001
2.248629e+003,5.575016e+001
2.250558e+003,5.572591e+001
2.252486e+003,5.566080e+001
2.254415e+003,5.563259e+001
2.256343e+003,5.561488e+001
2.258272e+003,5.557710e+001
2.260200e+003,5.551467e+001
2.262129e+003,5.545862e+001
2.264057e+003,5.540472e+001
2.265986e+003,5.536746e+001
2.267914e+003,5.535139e+001
2.269843e+003,5.534676e+001
2.271771e+003,5.531629e+001
2.273700e+003,5.528256e+001
2.275628e+003,5.525499e+001
2.277557e+003,5.527769e+001
2.279485e+003,5.533222e+001
2.281414e+003,5.538574e+001
2.283342e+003,5.539575e+001
2.285271e+003,5.528102e+001
2.287199e+003,5.509406e+001
2.289128e+003,5.489880e+001
2.291056e+003,5.472322e+001
2.292985e+003,5.452426e+001
2.294913e+003,5.430502e+001
2.296842e+003,5.407879e+001
2.298770e+003,5.383213e+001
2.300699e+003,5.361773e+001
2.302627e+003,5.344390e+001
2.304556e+003,5.316072e+001
2.306484e+003,5.267048e+001
2.308413e+003,5.216578e+001
2.310341e+003,5.175167e+001
2.312270e+003,5.142208e+001
2.314198e+003,5.121532e+001
2.316127e+003,5.092738e+001
2.318055e+003,5.032692e+001
2.319984e+003,4.955613e+001
2.321912e+003,4.885777e+001
2.323841e+003,4.838131e+001
2.325769e+003,4.800790e+001
2.327698e+003,4.754069e+001
2.329626e+003,4.705716e+001
2.331555e+003,4.681119e+001
2.333483e+003,4.675206e+001
2.335412e+003,4.654495e+001
2.337340e+003,4.629959e+001
2.339269e+003,4.607972e+001
2.341197e+003,4.578935e+001
2.343126e+003,4.587833e+001
2.345054e+003,4.646535e+001
2.346983e+003,4.796015e+001
2.348911e+003,4.880095e+001
2.350840e+003,4.792692e+001
2.352768e+003,4.628049e+001
2.354697e+003,4.472739e+001
2.356625e+003,4.340221e+001
2.358554e+003,4.291772e+001
2.360482e+003,4.285725e+001
2.362411e+003,4.299924e+001
2.364339e+003,4.343402e+001
2.366268e+003,4.422871e+001
2.368196e+003,4.534341e+001
2.370125e+003,4.655607e+001
2.372053e+003,4.778075e+001
2.373982e+003,4.900565e+001
2.375910e+003,5.016459e+001
2.377839e+003,5.119602e+001
2.379767e+003,5.214854e+001
2.381696e+003,5.306589e+001
2.383624e+003,5.382306e+001
2.385553e+003,5.436039e+001
2.387481e+003,5.462717e+001
2.389410e+003,5.472440e+001
2.391338e+003,5.475463e+001
2.393267e+003,5.474954e+001
2.395195e+003,5.474028e+001
2.397124e+003,5.474320e+001
2.399052e+003,5.472562e+001
2.400981e+003,5.471670e+001
2.402909e+003,5.469855e+001
2.404838e+003,5.467024e+001
2.406766e+003,5.464152e+001
2.408695e+003,5.463311e+001
2.410623e+003,5.461098e+001
2.412552e+003,5.461441e+001
2.414480e+003,5.461345e+001
2.416409e+003,5.458061e+001
2.418337e+003,5.454149e+001
2.420266e+003,5.452706e+001
2.422194e+003,5.449247e+001
2.424123e+003,5.446685e+001
2.426051e+003,5.447390e+001
2.427980e+003,5.447425e+001
2.429908e+003,5.445310e+001
2.431837e+003,5.443356e+001
2.433765e+003,5.443487e+001
2.435694e+003,5.444699e+001
2.437622e+003,5.441347e+001
2.439551e+003,5.437094e+001
2.441479e+003,5.436813e+001
2.443408e+003,5.435677e+001
2.445336e+003,5.431917e+001
2.447265e+003,5.428696e+001
2.449193e+003,5.427002e+001
2.451122e+003,5.425460e+001
2.453050e+003,5.424857e+001
2.454979e+003,5.424173e+001
2.456907e+003,5.423766e+001
2.458836e+003,5.421601e+001
2.460764e+003,5.417879e+001
2.462693e+003,5.415030e+001
2.464621e+003,5.414556e+001
2.466550e+003,5.416307e+001
2.468478e+003,5.414828e+001
2.470406e+003,5.411010e+001
2.472335e+003,5.405860e+001
2.474264e+003,5.404681e+001
2.476192e+003,5.402556e+001
2.478121e+003,5.400063e+001
2.480049e+003,5.399363e+001
2.481978e+003,5.398905e+001
2.483906e+003,5.394220e+001
2.485834e+003,5.391042e+001
2.487763e+003,5.392618e+001
2.489692e+003,5.395145e+001
2.491620e+003,5.393371e+001
2.493549e+003,5.387600e+001
2.495477e+003,5.384466e+001
2.497406e+003,5.384684e+001
2.499334e+003,5.383432e+001
2.501262e+003,5.379163e+001
2.503191e+003,5.378010e+001
2.505120e+003,5.377219e+001
2.507048e+003,5.373938e+001
2.508977e+003,5.370852e+001
2.510905e+003,5.367670e+001
2.512833e+003,5.368095e+001
2.514762e+003,5.368055e+001
2.516690e+003,5.365498e+001
2.518619e+003,5.363223e+001
2.520548e+003,5.361311e+001
2.522476e+003,5.358654e+001
2.524405e+003,5.357696e+001
2.526333e+003,5.357700e+001
2.528261e+003,5.355648e+001
2.530190e+003,5.351587e+001
2.532119e+003,5.348591e+001
2.534047e+003,5.348843e+001
2.535976e+003,5.348100e+001
2.537904e+003,5.344905e+001
2.539833e+003,5.344664e+001
2.541761e+003,5.343019e+001
2.543689e+003,5.342833e+001
2.545618e+003,5.340236e+001
2.547547e+003,5.336087e+001
2.549475e+003,5.333651e+001
2.551404e+003,5.333159e+001
2.553332e+003,5.332539e+001
2.555260e+003,5.329618e+001
2.557189e+003,5.325890e+001
2.559117e+003,5.321416e+001
2.561046e+003,5.319579e+001
2.562975e+003,5.319820e+001
2.564903e+003,5.319783e+001
2.566832e+003,5.316873e+001
2.568760e+003,5.311604e+001
2.570688e+003,5.309454e+001
2.572617e+003,5.309749e+001
2.574545e+003,5.309221e+001
2.576474e+003,5.305999e+001
2.578403e+003,5.302169e+001
2.580331e+003,5.300938e+001
2.582260e+003,5.300664e+001
2.584188e+003,5.299554e+001
2.586116e+003,5.297217e+001
2.588045e+003,5.294059e+001
2.589973e+003,5.291550e+001
2.591902e+003,5.291602e+001
2.593831e+003,5.291767e+001
2.595759e+003,5.288732e+001
2.597688e+003,5.285456e+001
2.599616e+003,5.282459e+001
2.601544e+003,5.280823e+001
2.603473e+003,5.279657e+001
2.605401e+003,5.280768e+001
2.607330e+003,5.278887e+001
2.609259e+003,5.276316e+001
2.611187e+003,5.273748e+001
2.613115e+003,5.270807e+001
2.615044e+003,5.267382e+001
2.616972e+003,5.265990e+001
2.618901e+003,5.264552e+001
2.620830e+003,5.260889e+001
2.622758e+003,5.257035e+001
2.624687e+003,5.255661e+001
2.626615e+003,5.255289e+001
2.628543e+003,5.253954e+001
2.630472e+003,5.252003e+001
2.632400e+003,5.249728e+001
2.634329e+003,5.245493e+001
2.636258e+003,5.243013e+001
2.638186e+003,5.241466e+001
2.640115e+003,5.242125e+001
2.642043e+003,5.239301e+001
2.643971e+003,5.237419e+001
2.645900e+003,5.238158e+001
2.647828e+003,5.238199e+001
2.649757e+003,5.235336e+001
2.651686e+003,5.232956e+001
2.653614e+003,5.229180e+001
2.655542e+003,5.227956e+001
2.657471e+003,5.223576e+001
2.659399e+003,5.223723e+001
2.661328e+003,5.225507e+001
2.663256e+003,5.222002e+001
2.665185e+003,5.218301e+001
2.667114e+003,5.215475e+001
2.669042e+003,5.212848e+001
2.670970e+003,5.211172e+001
2.672899e+003,5.209347e+001
2.674827e+003,5.208700e+001
2.676756e+003,5.207073e+001
2.678684e+003,5.203820e+001
2.680613e+003,5.199387e+001
2.682542e+003,5.197611e+001
2.684470e+003,5.196831e+001
2.686398e+003,5.197787e+001
2.688327e+003,5.196733e+001
2.690255e+003,5.190845e+001
2.692184e+003,5.185006e+001
2.694112e+003,5.184988e+001
2.696041e+003,5.183903e+001
2.697969e+003,5.182421e+001
2.699898e+003,5.181104e+001
2.701826e+003,5.179189e+001
2.703755e+003,5.173823e+001
2.705683e+003,5.171741e+001
2.707612e+003,5.171749e+001
2.709540e+003,5.170375e+001
2.711469e+003,5.168339e+001
2.713397e+003,5.166439e+001
2.715326e+003,5.164023e+001
2.717254e+003,5.163656e+001
2.719183e+003,5.162516e+001
2.721111e+003,5.157710e+001
2.723040e+003,5.152390e+001
2.724969e+003,5.149561e+001
2.726897e+003,5.148358e+001
2.728825e+003,5.148853e+001
2.730754e+003,5.147253e+001
2.732682e+003,5.146436e+001
2.734611e+003,5.144967e+001
2.736539e+003,5.140628e+001
2.738468e+003,5.136934e+001
2.740396e+003,5.133987e+001
2.742325e+003,5.132383e+001
2.744253e+003,5.132196e+001
2.746182e+003,5.129031e+001
2.748110e+003,5.126608e+001
2.750039e+003,5.127192e+001
2.751967e+003,5.121712e+001
2.753896e+003,5.115121e+001
2.755824e+003,5.116013e+001
2.757753e+003,5.116636e+001
2.759681e+003,5.114444e+001
2.761610e+003,5.113332e+001
2.763538e+003,5.113018e+001
2.765467e+003,5.109081e+001
2.767395e+003,5.105558e+001
2.769324e+003,5.103170e+001
2.771252e+003,5.101033e+001
2.773181e+003,5.095203e+001
2.775109e+003,5.092846e+001
2.777038e+003,5.093276e+001
2.778966e+003,5.092213e+001
2.780895e+003,5.087728e+001
2.782823e+003,5.083590e+001
2.784752e+003,5.083883e+001
2.786680e+003,5.083764e+001
2.788609e+003,5.080572e+001
2.790537e+003,5.077532e+001
2.792466e+003,5.074187e+001
2.794394e+003,5.069984e+001
2.796323e+003,5.067750e+001
2.798251e+003,5.068693e+001
2.800180e+003,5.066568e+001
2.802108e+003,5.063135e+001
2.804037e+003,5.062632e+001
2.805965e+003,5.059864e+001
2.807894e+003,5.059022e+001
2.809822e+003,5.057423e+001
2.811751e+003,5.053508e+001
2.813679e+003,5.051855e+001
2.815608e+003,5.051912e+001
2.817536e+003,5.046993e+001
2.819465e+003,5.044124e+001
2.821393e+003,5.043259e+001
2.823322e+003,5.042731e+001
2.825250e+003,5.042167e+001
2.827179e+003,5.038235e+001
2.829107e+003,5.031923e+001
2.831036e+003,5.025214e+001
2.832964e+003,5.022235e+001
2.834893e+003,5.020537e+001
2.836821e+003,5.016395e+001
2.838750e+003,5.012741e+001
2.840678e+003,5.013425e+001
2.842607e+003,5.012411e+001
2.844535e+003,5.006323e+001
2.846464e+003,4.996540e+001
2.848392e+003,4.993508e+001
2.850321e+003,4.990679e+001
2.852249e+003,4.989645e+001
2.854178e+003,4.987910e+001
2.856106e+003,4.983447e+001
2.858035e+003,4.978646e+001
2.859963e+003,4.977230e+001
2.861892e+003,4.978982e+001
2.863820e+003,4.977825e+001
2.865749e+003,4.972001e+001
2.867677e+003,4.969461e+001
2.869606e+003,4.964846e+001
2.871534e+003,4.955634e+001
2.873463e+003,4.956382e+001
2.875391e+003,4.957866e+001
2.877320e+003,4.955828e+001
2.879248e+003,4.953006e+001
2.881177e+003,4.949115e+001
2.883105e+003,4.945032e+001
2.885034e+003,4.941204e+001
2.886962e+003,4.938881e+001
2.888891e+003,4.937747e+001
2.890819e+003,4.934125e+001
2.892748e+003,4.928912e+001
2.894676e+003,4.926134e+001
2.896605e+003,4.921442e+001
2.898533e+003,4.913988e+001
2.900462e+003,4.910255e+001
2.902390e+003,4.909456e+001
2.904319e+003,4.908987e+001
2.906247e+003,4.910229e+001
2.908176e+003,4.908194e+001
2.910104e+003,4.902327e+001
2.912033e+003,4.894437e+001
2.913961e+003,4.888034e+001
2.915890e+003,4.884148e+001
2.917818e+003,4.886168e+001
2.919747e+003,4.889936e+001
2.921675e+003,4.887141e+001
2.923604e+003,4.880522e+001
2.925532e+003,4.876839e+001
2.927461e+003,4.875473e+001
2.929389e+003,4.871916e+001
2.931318e+003,4.872582e+001
2.933246e+003,4.876077e+001
2.935175e+003,4.873125e+001
2.937103e+003,4.871325e+001
2.939032e+003,4.874374e+001
2.940960e+003,4.872630e+001
2.942889e+003,4.870045e+001
2.944817e+003,4.866678e+001
2.946746e+003,4.864626e+001
2.948674e+003,4.865308e+001
2.950603e+003,4.860873e+001
2.952531e+003,4.857392e+001
2.954460e+003,4.856056e+001
2.956388e+003,4.853688e+001
2.958317e+003,4.849717e+001
2.960245e+003,4.847885e+001
2.962174e+003,4.843244e+001
2.964102e+003,4.842152e+001
2.966031e+003,4.841314e+001
2.967959e+003,4.836634e+001
2.969888e+003,4.829891e+001
2.971816e+003,4.827643e+001
2.973745e+003,4.824582e+001
2.975673e+003,4.823410e+001
2.977602e+003,4.820374e+001
2.979530e+003,4.816542e+001
2.981459e+003,4.813149e+001
2.983387e+003,4.811727e+001
2.985316e+003,4.812929e+001
2.987244e+003,4.810613e+001
2.989173e+003,4.807153e+001
2.991101e+003,4.809480e+001
2.993030e+003,4.810398e+001
2.994958e+003,4.807641e+001
2.996887e+003,4.809214e+001
2.998815e+003,4.811703e+001
3.000744e+003,4.809628e+001
3.002672e+003,4.805574e+001
3.004601e+003,4.801524e+001
3.006529e+003,4.802575e+001
3.008458e+003,4.800367e+001
3.010386e+003,4.796775e+001
3.012315e+003,4.790784e+001
3.014243e+003,4.786548e+001
3.016172e+003,4.786530e+001
3.018100e+003,4.789389e+001
3.020029e+003,4.789933e+001
3.021957e+003,4.787401e+001
3.023886e+003,4.783756e+001
3.025814e+003,4.784432e+001
3.027743e+003,4.784150e+001
3.029671e+003,4.776794e+001
3.031600e+003,4.768785e+001
3.033528e+003,4.765519e+001
3.035457e+003,4.766326e+001
3.037385e+003,4.768464e+001
3.039314e+003,4.765943e+001
3.041242e+003,4.761976e+001
3.043171e+003,4.760691e+001
3.045099e+003,4.759885e+001
3.047028e+003,4.758813e+001
3.048956e+003,4.751815e+001
3.050885e+003,4.752056e+001
3.052813e+003,4.752686e+001
3.054742e+003,4.747061e+001
3.056670e+003,4.740054e+001
3.058599e+003,4.739466e+001
3.060527e+003,4.738245e+001
3.062456e+003,4.733464e+001
3.064384e+003,4.727632e+001
3.066313e+003,4.719288e+001
3.068241e+003,4.717340e+001
3.070170e+003,4.715740e+001
3.072098e+003,4.710499e+001
3.074027e+003,4.710616e+001
3.075955e+003,4.706277e+001
3.077884e+003,4.701405e+001
3.079812e+003,4.696587e+001
3.081741e+003,4.690495e+001
3.083669e+003,4.690173e+001
3.085598e+003,4.689314e+001
3.087526e+003,4.684785e+001
3.089455e+003,4.682084e+001
3.091383e+003,4.681330e+001
3.093312e+003,4.678111e+001
3.095240e+003,4.672446e+001
3.097169e+003,4.668651e+001
3.099097e+003,4.666328e+001
3.101026e+003,4.660854e+001
3.102954e+003,4.658398e+001
3.104883e+003,4.656404e+001
3.106811e+003,4.650448e+001
3.108740e+003,4.646460e+001
3.110668e+003,4.644611e+001
3.112597e+003,4.639817e+001
3.114525e+003,4.634661e+001
3.116454e+003,4.629444e+001
3.118382e+003,4.624721e+001
3.120311e+003,4.619357e+001
3.122239e+003,4.612176e+001
3.124167e+003,4.608414e+001
3.126096e+003,4.609899e+001
3.128025e+003,4.604779e+001
3.129953e+003,4.605570e+001
3.131882e+003,4.599836e+001
3.133810e+003,4.589066e+001
3.135739e+003,4.584609e+001
3.137667e+003,4.583229e+001
3.139595e+003,4.578221e+001
3.141524e+003,4.577477e+001
3.143453e+003,4.573373e+001
3.145381e+003,4.564193e+001
3.147310e+003,4.557975e+001
3.149238e+003,4.556440e+001
3.151167e+003,4.551591e+001
3.153095e+003,4.546653e+001
3.155023e+003,4.543903e+001
3.156952e+003,4.542448e+001
3.158881e+003,4.532512e+001
3.160809e+003,4.523552e+001
3.162738e+003,4.520623e+001
3.164666e+003,4.520731e+001
3.166594e+003,4.514323e+001
3.168523e+003,4.507627e+001
3.170452e+003,4.502509e+001
3.172380e+003,4.496388e+001
3.174309e+003,4.491821e+001
3.176237e+003,4.485665e+001
3.178166e+003,4.474467e+001
3.180094e+003,4.472610e+001
3.182022e+003,4.472319e+001
3.183951e+003,4.465570e+001
3.185880e+003,4.455937e+001
3.187808e+003,4.448485e+001
3.189737e+003,4.443533e+001
3.191665e+003,4.442139e+001
3.193594e+003,4.438227e+001
3.195522e+003,4.432896e+001
3.197450e+003,4.421079e+001
3.199379e+003,4.410202e+001
3.201308e+003,4.407253e+001
3.203236e+003,4.408252e+001
3.205165e+003,4.403191e+001
3.207093e+003,4.397583e+001
3.209021e+003,4.390167e+001
3.210950e+003,4.384659e+001
3.212878e+003,4.380263e+001
3.214807e+003,4.368090e+001
3.216736e+003,4.363810e+001
3.218664e+003,4.355116e+001
3.220593e+003,4.345785e+001
3.222521e+003,4.345408e+001
3.224449e+003,4.341598e+001
3.226378e+003,4.334552e+001
3.228306e+003,4.327847e+001
3.230235e+003,4.320110e+001
3.232164e+003,4.312826e+001
3.234092e+003,4.307424e+001
3.236021e+003,4.300539e+001
3.237949e+003,4.295466e+001
3.239877e+003,4.285888e+001
3.241806e+003,4.282613e+001
3.243734e+003,4.281937e+001
3.245663e+003,4.269659e+001
3.247592e+003,4.264703e+001
3.249520e+003,4.266783e+001
3.251448e+003,4.264400e+001
3.253377e+003,4.257247e+001
3.255305e+003,4.246170e+001
3.257234e+003,4.239278e+001
3.259162e+003,4.234460e+001
3.261091e+003,4.231144e+001
3.263020e+003,4.227698e+001
3.264948e+003,4.223558e+001
3.266876e+003,4.221102e+001
3.268805e+003,4.216004e+001
3.270733e+003,4.211256e+001
3.272662e+003,4.202096e+001
3.274591e+003,4.195568e+001
3.276519e+003,4.193615e+001
3.278448e+003,4.189928e+001
3.280376e+003,4.184723e+001
3.282304e+003,4.179426e+001
3.284233e+003,4.178205e+001
3.286161e+003,4.174865e+001
3.288090e+003,4.163690e+001
3.290019e+003,4.151168e+001
3.291947e+003,4.142215e+001
3.293875e+003,4.137906e+001
3.295804e+003,4.138589e+001
3.297732e+003,4.134277e+001
3.299661e+003,4.130032e+001
3.301589e+003,4.122286e+001
3.303518e+003,4.115297e+001
3.305447e+003,4.111329e+001
3.307375e+003,4.101998e+001
3.309303e+003,4.088968e+001
3.311232e+003,4.087050e+001
3.313160e+003,4.080451e+001
3.315089e+003,4.076859e+001
3.317017e+003,4.073351e+001
3.318946e+003,4.066277e+001
3.320875e+003,4.057519e+001
3.322803e+003,4.049073e+001
3.324731e+003,4.039639e+001
3.326660e+003,4.036298e+001
3.328588e+003,4.031032e+001
3.330517e+003,4.024351e+001
3.332445e+003,4.019152e+001
3.334374e+003,4.015693e+001
3.336302e+003,3.998376e+001
3.338231e+003,3.982783e+001
3.340159e+003,3.978055e+001
3.342088e+003,3.972816e+001
3.344016e+003,3.967364e+001
3.345945e+003,3.963637e+001
3.347873e+003,3.951435e+001
3.349802e+003,3.938356e+001
3.351730e+003,3.931825e+001
3.353659e+003,3.927606e+001
3.355587e+003,3.917507e+001
3.357516e+003,3.905807e+001
3.359444e+003,3.900084e+001
3.361373e+003,3.895470e+001
3.363302e+003,3.886642e+001
3.365230e+003,3.879113e+001
3.367158e+003,3.869071e+001
3.369087e+003,3.857960e+001
3.371015e+003,3.854296e+001
3.372944e+003,3.847637e+001
3.374872e+003,3.834262e+001
3.376801e+003,3.827783e+001
3.378729e+003,3.821578e+001
3.380658e+003,3.812081e+001
3.382586e+003,3.811791e+001
3.384515e+003,3.809749e+001
3.386443e+003,3.794069e+001
3.388372e+003,3.781019e+001
3.390300e+003,3.775842e+001
3.392229e+003,3.769618e+001
3.394157e+003,3.763157e+001
3.396086e+003,3.762019e+001
3.398014e+003,3.750599e+001
3.399943e+003,3.742029e+001
3.401871e+003,3.735595e+001
3.403800e+003,3.731172e+001
3.405728e+003,3.728267e+001
3.407657e+003,3.726480e+001
3.409585e+003,3.719973e+001
3.411514e+003,3.709969e+001
3.413442e+003,3.705556e+001
3.415371e+003,3.707031e+001
3.417299e+003,3.706372e+001
3.419228e+003,3.695277e+001
3.421156e+003,3.682924e+001
3.423085e+003,3.684516e+001
3.425013e+003,3.686202e+001
3.426942e+003,3.683027e+001
3.428870e+003,3.674907e+001
3.430799e+003,3.665469e+001
3.432727e+003,3.659426e+001
3.434656e+003,3.659694e+001
3.436584e+003,3.657328e+001
3.438513e+003,3.656543e+001
3.440441e+003,3.656763e+001
3.442370e+003,3.645785e+001
3.444298e+003,3.644725e+001
3.446227e+003,3.636774e+001
3.448155e+003,3.627483e+001
3.450084e+003,3.641206e+001
3.452012e+003,3.647194e+001
3.453941e+003,3.646714e+001
3.455869e+003,3.636708e+001
3.457798e+003,3.637218e+001
3.459726e+003,3.640182e+001
3.461655e+003,3.636029e+001
3.463583e+003,3.634127e+001
3.465512e+003,3.638928e+001
3.467440e+003,3.634486e+001
3.469369e+003,3.636230e+001
3.471297e+003,3.639243e+001
3.473226e+003,3.643055e+001
3.475154e+003,3.642413e+001
3.477083e+003,3.640926e+001
3.479011e+003,3.640432e+001
3.480940e+003,3.642207e+001
3.482868e+003,3.642127e+001
3.484797e+003,3.650289e+001
3.486725e+003,3.645037e+001
3.488654e+003,3.641208e+001
3.490582e+003,3.646764e+001
3.492511e+003,3.656480e+001
3.494439e+003,3.661469e+001
3.496368e+003,3.662214e+001
3.498296e+003,3.665687e+001
3.500225e+003,3.674700e+001
3.502153e+003,3.671352e+001
3.504082e+003,3.657914e+001
3.506010e+003,3.663910e+001
3.507939e+003,3.674676e+001
3.509867e+003,3.662049e+001
3.511796e+003,3.666997e+001
3.513724e+003,3.679548e+001
3.515653e+003,3.689005e+001
3.517581e+003,3.689071e+001
3.519510e+003,3.691935e+001
3.521438e+003,3.700857e+001
3.523367e+003,3.694884e+001
3.525295e+003,3.701045e+001
3.527224e+003,3.704824e+001
3.529152e+003,3.700510e+001
3.531081e+003,3.709045e+001
3.533009e+003,3.720942e+001
3.534938e+003,3.732314e+001
3.536866e+003,3.728092e+001
3.538795e+003,3.730509e+001
3.540723e+003,3.738726e+001
3.542652e+003,3.747149e+001
3.544580e+003,3.734433e+001
3.546509e+003,3.719640e+001
3.548437e+003,3.731547e+001
3.550366e+003,3.756120e+001
3.552294e+003,3.743563e+001
3.554223e+003,3.748816e+001
3.556151e+003,3.762546e+001
3.558080e+003,3.770346e+001
3.560008e+003,3.771130e+001
3.561937e+003,3.779587e+001
3.563865e+003,3.799219e+001
3.565794e+003,3.795213e+001
3.567722e+003,3.734703e+001
3.569651e+003,3.755368e+001
3.571579e+003,3.789512e+001
3.573508e+003,3.805190e+001
3.575436e+003,3.807103e+001
3.577365e+003,3.816584e+001
3.579293e+003,3.812662e+001
3.581222e+003,3.810658e+001
3.583150e+003,3.825119e+001
3.585079e+003,3.847712e+001
3.587007e+003,3.814476e+001
3.588936e+003,3.782581e+001
3.590864e+003,3.828990e+001
3.592793e+003,3.844611e+001
3.594721e+003,3.826598e+001
3.596650e+003,3.827827e+001
3.598578e+003,3.835210e+001
3.600507e+003,3.828505e+001
3.602435e+003,3.839494e+001
3.604364e+003,3.875865e+001
3.606292e+003,3.895196e+001
3.608221e+003,3.874739e+001
3.610149e+003,3.893995e+001
3.612078e+003,3.914984e+001
3.614006e+003,3.875845e+001
3.615935e+003,3.907233e+001
3.617863e+003,3.915857e+001
3.619792e+003,3.871437e+001
3.621720e+003,3.886148e+001
3.623649e+003,3.916713e+001
3.625577e+003,3.944971e+001
3.627506e+003,3.967931e+001
3.629434e+003,3.855265e+001
3.631363e+003,3.904963e+001
3.633291e+003,3.937767e+001
3.635220e+003,3.943702e+001
3.637148e+003,3.962682e+001
3.639077e+003,3.966130e+001
3.641005e+003,3.980272e+001
3.642934e+003,3.988897e+001
3.644862e+003,4.029786e+001
3.646791e+003,4.048801e+001
3.648719e+003,3.996595e+001
3.650648e+003,3.915628e+001
3.652576e+003,3.970562e+001
3.654505e+003,4.031585e+001
3.656433e+003,3.993843e+001
3.658362e+003,4.006424e+001
3.660290e+003,4.025398e+001
3.662219e+003,4.035144e+001
3.664147e+003,4.046676e+001
3.666076e+003,4.071362e+001
3.668004e+003,4.097011e+001
3.669933e+003,4.010445e+001
3.671861e+003,4.032838e+001
3.673790e+003,4.115408e+001
3.675718e+003,3.969091e+001
3.677647e+003,3.986269e+001
3.679575e+003,4.019917e+001
3.681504e+003,4.041756e+001
3.683432e+003,4.052840e+001
3.685361e+003,4.065842e+001
3.687289e+003,4.082922e+001
3.689218e+003,4.016408e+001
3.691146e+003,3.976456e+001
3.693075e+003,3.997175e+001
3.695003e+003,4.022525e+001
3.696932e+003,4.029671e+001
3.698860e+003,4.055182e+001
3.700789e+003,4.044219e+001
3.702717e+003,3.996770e+001
3.704646e+003,4.009494e+001
3.706574e+003,4.043125e+001
3.708503e+003,4.070195e+001
3.710431e+003,4.042105e+001
3.712360e+003,3.986925e+001
3.714288e+003,4.010131e+001
3.716217e+003,4.046203e+001
3.718145e+003,4.038745e+001
3.720074e+003,4.029797e+001
3.722002e+003,4.002983e+001
3.723931e+003,3.982555e+001
3.725859e+003,3.967008e+001
3.727788e+003,3.954484e+001
3.729716e+003,4.005669e+001
3.731645e+003,4.012582e+001
3.733573e+003,3.991544e+001
3.735502e+003,3.910927e+001
3.737430e+003,3.916339e+001
3.739359e+003,3.978645e+001
3.741287e+003,4.038514e+001
3.743216e+003,4.088421e+001
3.745144e+003,3.970588e+001
3.747073e+003,4.013594e+001
3.749001e+003,4.034781e+001
3.750930e+003,3.944433e+001
3.752858e+003,3.948722e+001
3.754787e+003,4.019222e+001
3.756715e+003,4.042144e+001
3.758644e+003,4.016808e+001
3.760572e+003,3.981479e+001
3.762500e+003,4.027999e+001
3.764429e+003,4.044451e+001
3.766358e+003,4.022415e+001
3.768286e+003,4.034134e+001
3.770215e+003,3.984806e+001
3.772143e+003,4.003440e+001
3.774072e+003,4.030149e+001
3.776000e+003,4.042614e+001
3.777928e+003,4.046289e+001
3.779857e+003,3.985492e+001
3.781786e+003,4.008748e+001
3.783714e+003,4.022831e+001
3.785643e+003,3.994759e+001
3.787571e+003,4.016776e+001
3.789500e+003,4.023489e+001
3.791428e+003,4.014233e+001
3.793356e+003,4.023336e+001
3.795285e+003,4.022854e+001
3.797214e+003,3.983240e+001
3.799142e+003,4.032106e+001
3.801071e+003,3.980198e+001
3.802999e+003,3.926233e+001
3.804927e+003,4.002639e+001
3.806856e+003,3.949154e+001
3.808785e+003,3.942400e+001
3.810713e+003,3.983471e+001
3.812642e+003,4.009919e+001
3.814570e+003,4.022030e+001
3.816499e+003,3.936718e+001
3.818427e+003,3.976296e+001
3.820355e+003,3.939867e+001
3.822284e+003,3.878152e+001
3.824213e+003,3.965841e+001
3.826141e+003,3.973766e+001
3.828070e+003,3.970983e+001
3.829998e+003,4.002132e+001
3.831927e+003,3.968338e+001
3.833855e+003,3.973867e+001
3.835783e+003,3.991806e+001
3.837712e+003,3.959729e+001
3.839641e+003,3.917111e+001
3.841569e+003,3.943393e+001
3.843498e+003,3.939043e+001
3.845426e+003,3.939139e+001
3.847354e+003,3.981075e+001
3.849283e+003,3.999500e+001
3.851211e+003,4.031396e+001
3.853140e+003,3.894081e+001
3.855069e+003,3.843951e+001
3.856997e+003,3.892971e+001
3.858926e+003,3.944387e+001
3.860854e+003,3.974513e+001
3.862782e+003,3.954163e+001
3.864711e+003,3.900874e+001
3.866639e+003,3.927871e+001
3.868568e+003,3.974058e+001
3.870497e+003,3.881777e+001
3.872425e+003,3.935958e+001
3.874354e+003,3.896669e+001
3.876282e+003,3.916318e+001
3.878210e+003,3.973893e+001
3.880139e+003,3.924100e+001
3.882067e+003,3.897791e+001
3.883996e+003,3.937827e+001
3.885925e+003,3.872146e+001
3.887853e+003,3.917916e+001
3.889781e+003,3.950353e+001
3.891710e+003,3.880276e+001
3.893638e+003,3.885864e+001
3.895567e+003,3.943619e+001
3.897495e+003,3.966673e+001
3.899424e+003,3.922224e+001
3.901353e+003,3.912473e+001
3.903281e+003,3.907935e+001
3.905209e+003,3.870390e+001
3.907138e+003,3.884189e+001
3.909066e+003,3.907065e+001
3.910995e+003,3.915115e+001
3.912924e+003,3.920659e+001
3.914852e+003,3.933132e+001
3.916781e+003,3.905022e+001
3.918709e+003,3.885369e+001
3.920637e+003,3.882589e+001
3.922566e+003,3.912915e+001
3.924494e+003,3.891406e+001
3.926423e+003,3.887459e+001
3.928352e+003,3.906576e+001
3.930280e+003,3.896091e+001
3.932208e+003,3.872361e+001
3.934137e+003,3.865860e+001
3.936065e+003,3.884152e+001
3.937994e+003,3.883736e+001
3.939922e+003,3.909813e+001
3.941851e+003,3.916196e+001
3.943780e+003,3.880291e+001
3.945708e+003,3.891651e+001
3.947636e+003,3.886045e+001
3.949565e+003,3.868166e+001
3.951493e+003,3.878080e+001
3.953422e+003,3.884901e+001
3.955350e+003,3.882484e+001
3.957279e+003,3.872253e+001
3.959208e+003,3.870377e+001
3.961136e+003,3.865440e+001
3.963064e+003,3.858778e+001
3.964993e+003,3.861535e+001
3.966921e+003,3.863256e+001
3.968850e+003,3.864703e+001
3.970778e+003,3.865835e+001
3.972707e+003,3.862815e+001
3.974635e+003,3.851093e+001
3.976564e+003,3.847087e+001
3.978492e+003,3.857634e+001
3.980421e+003,3.860130e+001
3.982349e+003,3.852129e+001
3.984278e+003,3.852269e+001
3.986206e+003,3.860530e+001
3.988135e+003,3.861856e+001
3.990063e+003,3.847223e+001
3.991992e+003,3.834521e+001
3.993920e+003,3.834752e+001
3.995849e+003,3.835529e+001
3.997777e+003,3.833694e+001
3.999706e+003,3.837988e+001
