3.991992e+002,6.047755e+001
4.011277e+002,5.559499e+001
4.030562e+002,5.128373e+001
4.049847e+002,4.899942e+001
4.069132e+002,4.730241e+001
4.088417e+002,4.505500e+001
4.107702e+002,4.168546e+001
4.126987e+002,3.740773e+001
4.146272e+002,3.521898e+001
4.165557e+002,3.550636e+001
4.184842e+002,3.606351e+001
4.204127e+002,2.978109e+001
4.223412e+002,2.790591e+001
4.242697e+002,2.746112e+001
4.261982e+002,2.878308e+001
4.281267e+002,2.928963e+001
4.300552e+002,2.986520e+001
4.319837e+002,3.061766e+001
4.339122e+002,3.105114e+001
4.358407e+002,3.132091e+001
4.377692e+002,3.148941e+001
4.396977e+002,3.144335e+001
4.416262e+002,3.195131e+001
4.435547e+002,3.113717e+001
4.454832e+002,2.954656e+001
4.474117e+002,2.864404e+001
4.493401e+002,2.856976e+001
4.512686e+002,2.800671e+001
4.531971e+002,2.605846e+001
4.551256e+002,2.370223e+001
4.570541e+002,2.241519e+001
4.589826e+002,2.069487e+001
4.609111e+002,1.963554e+001
4.628396e+002,1.895752e+001
4.647681e+002,1.865628e+001
4.666966e+002,1.855030e+001
4.686251e+002,1.856776e+001
4.705536e+002,1.876032e+001
4.724821e+002,2.009187e+001
4.744106e+002,2.102731e+001
4.763391e+002,2.151486e+001
4.782676e+002,2.265368e+001
4.801961e+002,2.478920e+001
4.821246e+002,2.659437e+001
4.840531e+002,2.832778e+001
4.859816e+002,2.977331e+001
4.879101e+002,3.163612e+001
4.898386e+002,3.373734e+001
4.917671e+002,3.646371e+001
4.936956e+002,4.008077e+001
4.956241e+002,4.395108e+001
4.975526e+002,4.773692e+001
4.994811e+002,5.125995e+001
5.014096e+002,5.534981e+001
5.033381e+002,5.891365e+001
5.052666e+002,6.108922e+001
5.071951e+002,6.325307e+001
5.091236e+002,6.433153e+001
5.110521e+002,6.487644e+001
5.129806e+002,6.481862e+001
5.149091e+002,6.479516e+001
5.168376e+002,6.516872e+001
5.187661e+002,6.603130e+001
5.206946e+002,6.729234e+001
5.226231e+002,6.874863e+001
5.245516e+002,7.143649e+001
5.264801e+002,7.479800e+001
5.284086e+002,7.748101e+001
5.303371e+002,8.073224e+001
5.322656e+002,8.431379e+001
5.341941e+002,8.778230e+001
5.361226e+002,9.110429e+001
5.380511e+002,9.396664e+001
5.399796e+002,9.684541e+001
5.419081e+002,9.929807e+001
5.438365e+002,9.999999e+001
5.457651e+002,9.824652e+001
5.476936e+002,9.345655e+001
5.496221e+002,8.656570e+001
5.515506e+002,7.831531e+001
5.534791e+002,6.961736e+001
5.554076e+002,6.108079e+001
5.573361e+002,5.428498e+001
5.592646e+002,4.998413e+001
5.611931e+002,4.866586e+001
5.631216e+002,4.983480e+001
5.650500e+002,5.283682e+001
5.669786e+002,5.758539e+001
5.689070e+002,6.324706e+001
5.708356e+002,6.880966e+001
5.727640e+002,7.424995e+001
5.746926e+002,7.937749e+001
5.766210e+002,8.422955e+001
5.785496e+002,8.845017e+001
5.804780e+002,9.280486e+001
5.824066e+002,9.630477e+001
5.843350e+002,9.841781e+001
5.862635e+002,9.845844e+001
5.881920e+002,9.604306e+001
5.901205e+002,9.221046e+001
5.920490e+002,8.602917e+001
5.939775e+002,7.731941e+001
5.959060e+002,6.789052e+001
5.978345e+002,5.954664e+001
5.997631e+002,5.410391e+001
6.016915e+002,5.245212e+001
6.036201e+002,5.432178e+001
6.055485e+002,5.901612e+001
6.074771e+002,6.500790e+001
6.094055e+002,7.099055e+001
6.113340e+002,7.586246e+001
6.132625e+002,7.935004e+001
6.151910e+002,8.060781e+001
6.171195e+002,7.912717e+001
6.190480e+002,7.650591e+001
6.209765e+002,7.318151e+001
6.229050e+002,6.949592e+001
6.248335e+002,6.763545e+001
6.267620e+002,6.875282e+001
6.286905e+002,7.306468e+001
6.306190e+002,7.843856e+001
6.325475e+002,8.303240e+001
6.344760e+002,8.560273e+001
6.364045e+002,8.566140e+001
6.383330e+002,8.333382e+001
6.402615e+002,7.987013e+001
6.421900e+002,7.586301e+001
6.441185e+002,7.217523e+001
6.460470e+002,6.860282e+001
6.479755e+002,6.525320e+001
6.499040e+002,6.222913e+001
6.518325e+002,5.943654e+001
6.537610e+002,5.577288e+001
6.556895e+002,5.164953e+001
6.576180e+002,4.743072e+001
6.595465e+002,4.351856e+001
6.614750e+002,3.992955e+001
6.634035e+002,3.719454e+001
6.653320e+002,3.512005e+001
6.672605e+002,3.153753e+001
6.691890e+002,2.832909e+001
6.711175e+002,2.914984e+001
6.730460e+002,2.849318e+001
6.749745e+002,2.771204e+001
6.769030e+002,2.721689e+001
6.788315e+002,2.696954e+001
6.807599e+002,2.679140e+001
6.826885e+002,2.630066e+001
6.846169e+002,2.555643e+001
6.865455e+002,2.502959e+001
6.884739e+002,2.471524e+001
6.904025e+002,2.477007e+001
6.923309e+002,2.492650e+001
6.942595e+002,2.505148e+001
6.961880e+002,2.517805e+001
6.981165e+002,2.532639e+001
7.000450e+002,2.566139e+001
7.019734e+002,2.669371e+001
7.039020e+002,2.834826e+001
7.058304e+002,3.040788e+001
7.077590e+002,3.251873e+001
7.096874e+002,3.445002e+001
7.116160e+002,3.565485e+001
7.135444e+002,3.609241e+001
7.154730e+002,3.591941e+001
7.174014e+002,3.555787e+001
7.193300e+002,3.532198e+001
7.212584e+002,3.640321e+001
7.231870e+002,3.847454e+001
7.251154e+002,4.037962e+001
7.270439e+002,4.243717e+001
7.289724e+002,4.458105e+001
7.309009e+002,4.671524e+001
7.328294e+002,4.858069e+001
7.347579e+002,5.034993e+001
7.366864e+002,5.218842e+001
7.386149e+002,5.395321e+001
7.405434e+002,5.557249e+001
7.424719e+002,5.727748e+001
7.444004e+002,5.898743e+001
7.463289e+002,6.058257e+001
7.482574e+002,6.208698e+001
7.501859e+002,6.367505e+001
7.521144e+002,6.527450e+001
7.540429e+002,6.680540e+001
7.559714e+002,6.809487e+001
7.578999e+002,6.943311e+001
7.598284e+002,7.081358e+001
7.617569e+002,7.226744e+001
7.636854e+002,7.365288e+001
7.656139e+002,7.496538e+001
7.675424e+002,7.620567e+001
7.694709e+002,7.755428e+001
7.713994e+002,7.882670e+001
7.733279e+002,8.000680e+001
7.752564e+002,8.115054e+001
7.771849e+002,8.231148e+001
7.791134e+002,8.328860e+001
7.810419e+002,8.410658e+001
7.829704e+002,8.487477e+001
7.848989e+002,8.549689e+001
7.868274e+002,8.555966e+001
7.887559e+002,8.564484e+001
7.906844e+002,8.569572e+001
7.926129e+002,8.557970e+001
7.945414e+002,8.527342e+001
7.964699e+002,8.473909e+001
7.983984e+002,8.395634e+001
8.003269e+002,8.317992e+001
8.022554e+002,8.242670e+001
8.041839e+002,8.153873e+001
8.061124e+002,8.044252e+001
8.080409e+002,7.939838e+001
8.099694e+002,7.831149e+001
8.118979e+002,7.726575e+001
8.138264e+002,7.620645e+001
8.157549e+002,7.509834e+001
8.176833e+002,7.391164e+001
8.196119e+002,7.280150e+001
8.215403e+002,7.176998e+001
8.234689e+002,7.068004e+001
8.253973e+002,6.943553e+001
8.273259e+002,6.821115e+001
8.292543e+002,6.701611e+001
8.311829e+002,6.587236e+001
8.331113e+002,6.472490e+001
8.350399e+002,6.361103e+001
8.369683e+002,6.241386e+001
8.388969e+002,6.115464e+001
8.408253e+002,5.997549e+001
8.427538e+002,5.895956e+001
8.446824e+002,5.788568e+001
8.466108e+002,5.675175e+001
8.485394e+002,5.558746e+001
8.504678e+002,5.448833e+001
8.523964e+002,5.340368e+001
8.543248e+002,5.243630e+001
8.562534e+002,5.137061e+001
8.581818e+002,5.020208e+001
8.601104e+002,4.905079e+001
8.620388e+002,4.807920e+001
8.639673e+002,4.713266e+001
8.658958e+002,4.606578e+001
8.678243e+002,4.498146e+001
8.697528e+002,4.381974e+001
8.716813e+002,4.274097e+001
8.736098e+002,4.182651e+001
8.755383e+002,4.088242e+001
8.774668e+002,3.987844e+001
8.793953e+002,3.883508e+001
8.813238e+002,3.780726e+001
8.832523e+002,3.681145e+001
8.851808e+002,3.585823e+001
8.871093e+002,3.488303e+001
8.890378e+002,3.383148e+001
8.909663e+002,3.284429e+001
8.928948e+002,3.196242e+001
8.948233e+002,3.101541e+001
8.967518e+002,3.007945e+001
8.986803e+002,2.922427e+001
9.006088e+002,2.834778e+001
9.025373e+002,2.749633e+001
9.044658e+002,2.662554e+001
9.063943e+002,2.578030e+001
9.083228e+002,2.482539e+001
9.102513e+002,2.391698e+001
9.121798e+002,2.309003e+001
9.141083e+002,2.231085e+001
9.160368e+002,2.154803e+001
9.179653e+002,2.082719e+001
9.198938e+002,2.007798e+001
9.218223e+002,1.932584e+001
9.237508e+002,1.851830e+001
9.256793e+002,1.765349e+001
9.276078e+002,1.685880e+001
9.295363e+002,1.618585e+001
9.314648e+002,1.546061e+001
9.333932e+002,1.475257e+001
9.353218e+002,1.423333e+001
9.372502e+002,1.381307e+001
9.391788e+002,1.342634e+001
9.411072e+002,1.309014e+001
9.430358e+002,1.274556e+001
9.449643e+002,1.244581e+001
9.468928e+002,1.224724e+001
9.488213e+002,1.205999e+001
9.507498e+002,1.173972e+001
9.526783e+002,1.154153e+001
9.546068e+002,1.131878e+001
9.565353e+002,1.102936e+001
9.584637e+002,1.079789e+001
9.603923e+002,1.058735e+001
9.623207e+002,1.039169e+001
9.642493e+002,1.026399e+001
9.661777e+002,1.014093e+001
9.681063e+002,1.006644e+001
9.700347e+002,1.000000e+001
9.719633e+002,1.002758e+001
9.738917e+002,1.008789e+001
9.758203e+002,1.021828e+001
9.777487e+002,1.027191e+001
9.796772e+002,1.042482e+001
9.816057e+002,1.063684e+001
9.835342e+002,1.077433e+001
9.854627e+002,1.079997e+001
9.873912e+002,1.083800e+001
9.893197e+002,1.086761e+001
9.912482e+002,1.080805e+001
9.931768e+002,1.081433e+001
9.951052e+002,1.079579e+001
9.970338e+002,1.067521e+001
9.989622e+002,1.061215e+001
1.000891e+003,1.042268e+001
1.002819e+003,1.027005e+001
1.004748e+003,1.022579e+001
1.006676e+003,1.021862e+001
1.008605e+003,1.026461e+001
1.010533e+003,1.039741e+001
1.012462e+003,1.054251e+001
1.014390e+003,1.070583e+001
1.016319e+003,1.085397e+001
1.018247e+003,1.096555e+001
1.020176e+003,1.101949e+001
1.022104e+003,1.111012e+001
1.024033e+003,1.127663e+001
1.025961e+003,1.146711e+001
1.027890e+003,1.158046e+001
1.029818e+003,1.165403e+001
1.031747e+003,1.172312e+001
1.033675e+003,1.183414e+001
1.035604e+003,1.198068e+001
1.037532e+003,1.213343e+001
1.039461e+003,1.224536e+001
1.041389e+003,1.239976e+001
1.043318e+003,1.263149e+001
1.045246e+003,1.286779e+001
1.047175e+003,1.311307e+001
1.049103e+003,1.345032e+001
1.051032e+003,1.378461e+001
1.052960e+003,1.419659e+001
1.054889e+003,1.457645e+001
1.056817e+003,1.495620e+001
1.058746e+003,1.526838e+001
1.060674e+003,1.561302e+001
1.062603e+003,1.587648e+001
1.064531e+003,1.603687e+001
1.066460e+003,1.612409e+001
1.068388e+003,1.617319e+001
1.070317e+003,1.619208e+001
1.072245e+003,1.623018e+001
1.074174e+003,1.621824e+001
1.076102e+003,1.626410e+001
1.078031e+003,1.637619e+001
1.079959e+003,1.650013e+001
1.081888e+003,1.670101e+001
1.083816e+003,1.697240e+001
1.085745e+003,1.721129e+001
1.087673e+003,1.741576e+001
1.089602e+003,1.759781e+001
1.091530e+003,1.777357e+001
1.093459e+003,1.791892e+001
1.095387e+003,1.805950e+001
1.097316e+003,1.829982e+001
1.099244e+003,1.863099e+001
1.101173e+003,1.878124e+001
1.103101e+003,1.876990e+001
1.105030e+003,1.874839e+001
1.106958e+003,1.875821e+001
1.108887e+003,1.868739e+001
1.110815e+003,1.846668e+001
1.112744e+003,1.819070e+001
1.114672e+003,1.796330e+001
1.116601e+003,1.773481e+001
1.118529e+003,1.756836e+001
1.120458e+003,1.744527e+001
1.122386e+003,1.736405e+001
1.124315e+003,1.735492e+001
1.126243e+003,1.746053e+001
1.128172e+003,1.759808e+001
1.130100e+003,1.776664e+001
1.132029e+003,1.795050e+001
1.133957e+003,1.813923e+001
1.135886e+003,1.840011e+001
1.137814e+003,1.867648e+001
1.139743e+003,1.884125e+001
1.141671e+003,1.898828e+001
1.143600e+003,1.916502e+001
1.145528e+003,1.933904e+001
1.147457e+003,1.948837e+001
1.149385e+003,1.959716e+001
1.151314e+003,1.967625e+001
1.153242e+003,1.973742e+001
1.155171e+003,1.985055e+001
1.157099e+003,2.000914e+001
1.159028e+003,2.010004e+001
1.160956e+003,2.030080e+001
1.162885e+003,2.055384e+001
1.164813e+003,2.078249e+001
1.166742e+003,2.095379e+001
1.168670e+003,2.117731e+001
1.170599e+003,2.141740e+001
1.172527e+003,2.164451e+001
1.174456e+003,2.180688e+001
1.176384e+003,2.193746e+001
1.178313e+003,2.217377e+001
1.180241e+003,2.242987e+001
1.182170e+003,2.263923e+001
1.184098e+003,2.289900e+001
1.186027e+003,2.316666e+001
1.187955e+003,2.341439e+001
1.189884e+003,2.361631e+001
1.191812e+003,2.380760e+001
1.193741e+003,2.398726e+001
1.195669e+003,2.416500e+001
1.197598e+003,2.430437e+001
1.199526e+003,2.450186e+001
1.201455e+003,2.466438e+001
1.203383e+003,2.482880e+001
1.205312e+003,2.498381e+001
1.207240e+003,2.515358e+001
1.209169e+003,2.531291e+001
1.211097e+003,2.546151e+001
1.213026e+003,2.561419e+001
1.214954e+003,2.580352e+001
1.216883e+003,2.592292e+001
1.218811e+003,2.603840e+001
1.220740e+003,2.621773e+001
1.222668e+003,2.638924e+001
1.224597e+003,2.649576e+001
1.226525e+003,2.664436e+001
1.228453e+003,2.680485e+001
1.230382e+003,2.690578e+001
1.232311e+003,2.700825e+001
1.234239e+003,2.718076e+001
1.236167e+003,2.733711e+001
1.238096e+003,2.745888e+001
1.240025e+003,2.752727e+001
1.241953e+003,2.764635e+001
1.243882e+003,2.779435e+001
1.245810e+003,2.793883e+001
1.247739e+003,2.806336e+001
1.249667e+003,2.818659e+001
1.251596e+003,2.832563e+001
1.253524e+003,2.846544e+001
1.255453e+003,2.858649e+001
1.257381e+003,2.867026e+001
1.259310e+003,2.875757e+001
1.261238e+003,2.884551e+001
1.263167e+003,2.891874e+001
1.265095e+003,2.909828e+001
1.267024e+003,2.924829e+001
1.268952e+003,2.932609e+001
1.270880e+003,2.943004e+001
1.272809e+003,2.953995e+001
1.274738e+003,2.966027e+001
1.276666e+003,2.978730e+001
1.278594e+003,2.987642e+001
1.280523e+003,2.996397e+001
1.282452e+003,3.002882e+001
1.284380e+003,3.015122e+001
1.286308e+003,3.030177e+001
1.288237e+003,3.045666e+001
1.290166e+003,3.051944e+001
1.292094e+003,3.057475e+001
1.294022e+003,3.063597e+001
1.295951e+003,3.074018e+001
1.297880e+003,3.083556e+001
1.299808e+003,3.091905e+001
1.301736e+003,3.099470e+001
1.303665e+003,3.106574e+001
1.305594e+003,3.114384e+001
1.307522e+003,3.127495e+001
1.309450e+003,3.139003e+001
1.311379e+003,3.146831e+001
1.313307e+003,3.161995e+001
1.315236e+003,3.170338e+001
1.317164e+003,3.187026e+001
1.319093e+003,3.207894e+001
1.321021e+003,3.202056e+001
1.322950e+003,3.191574e+001
1.324878e+003,3.197977e+001
1.326807e+003,3.208144e+001
1.328735e+003,3.216380e+001
1.330664e+003,3.228476e+001
1.332592e+003,3.234791e+001
1.334521e+003,3.236611e+001
1.336449e+003,3.256879e+001
1.338378e+003,3.300914e+001
1.340307e+003,3.328559e+001
1.342235e+003,3.292557e+001
1.344163e+003,3.275901e+001
1.346092e+003,3.282236e+001
1.348021e+003,3.295197e+001
1.349949e+003,3.305743e+001
1.351877e+003,3.305722e+001
1.353806e+003,3.313643e+001
1.355734e+003,3.325210e+001
1.357663e+003,3.326802e+001
1.359591e+003,3.338036e+001
1.361520e+003,3.378219e+001
1.363448e+003,3.403069e+001
1.365377e+003,3.365046e+001
1.367305e+003,3.363326e+001
1.369234e+003,3.382012e+001
1.371162e+003,3.380831e+001
1.373091e+003,3.408532e+001
1.375019e+003,3.438006e+001
1.376948e+003,3.409534e+001
1.378876e+003,3.408012e+001
1.380805e+003,3.408648e+001
1.382733e+003,3.406750e+001
1.384662e+003,3.411719e+001
1.386590e+003,3.459075e+001
1.388519e+003,3.480452e+001
1.390447e+003,3.446586e+001
1.392376e+003,3.440879e+001
1.394304e+003,3.501330e+001
1.396233e+003,3.537784e+001
1.398161e+003,3.526937e+001
1.400090e+003,3.517954e+001
1.402018e+003,3.476485e+001
1.403947e+003,3.493978e+001
1.405875e+003,3.514820e+001
1.407804e+003,3.494364e+001
1.409732e+003,3.498491e+001
1.411661e+003,3.513364e+001
1.413589e+003,3.508524e+001
1.415518e+003,3.523113e+001
1.417446e+003,3.574744e+001
1.419375e+003,3.639598e+001
1.421303e+003,3.590472e+001
1.423232e+003,3.578691e+001
1.425160e+003,3.581874e+001
1.427089e+003,3.556759e+001
1.429017e+003,3.592048e+001
1.430946e+003,3.612835e+001
1.432874e+003,3.596788e+001
1.434803e+003,3.603226e+001
1.436731e+003,3.680196e+001
1.438660e+003,3.642133e+001
1.440588e+003,3.597522e+001
1.442517e+003,3.600352e+001
1.444445e+003,3.608503e+001
1.446374e+003,3.635367e+001
1.448302e+003,3.677826e+001
1.450231e+003,3.660677e+001
1.452159e+003,3.661398e+001
1.454088e+003,3.675056e+001
1.456016e+003,3.766098e+001
1.457945e+003,3.914978e+001
1.459873e+003,3.774643e+001
1.461802e+003,3.685208e+001
1.463730e+003,3.702698e+001
1.465659e+003,3.752893e+001
1.467587e+003,3.705993e+001
1.469516e+003,3.680786e+001
1.471444e+003,3.756355e+001
1.473373e+003,3.878779e+001
1.475301e+003,3.807701e+001
1.477230e+003,3.759610e+001
1.479158e+003,3.719326e+001
1.481087e+003,3.730233e+001
1.483015e+003,3.726541e+001
1.484944e+003,3.725200e+001
1.486872e+003,3.781129e+001
1.488801e+003,3.872213e+001
1.490729e+003,3.892253e+001
1.492658e+003,3.788004e+001
1.494586e+003,3.759013e+001
1.496515e+003,3.850247e+001
1.498443e+003,3.882095e+001
1.500372e+003,3.847482e+001
1.502300e+003,3.807891e+001
1.504229e+003,3.792337e+001
1.506157e+003,3.981969e+001
1.508086e+003,4.184300e+001
1.510014e+003,3.978625e+001
1.511943e+003,3.891452e+001
1.513871e+003,3.866267e+001
1.515800e+003,3.928549e+001
1.517728e+003,3.999046e+001
1.519657e+003,3.954534e+001
1.521585e+003,4.109771e+001
1.523514e+003,4.055030e+001
1.525442e+003,4.005299e+001
1.527371e+003,3.991805e+001
1.529299e+003,3.926210e+001
1.531228e+003,3.891055e+001
1.533156e+003,3.996128e+001
1.535085e+003,3.999841e+001
1.537013e+003,3.922060e+001
1.538942e+003,4.025169e+001
1.540870e+003,4.330377e+001
1.542799e+003,4.202284e+001
1.544727e+003,4.101292e+001
1.546656e+003,3.981234e+001
1.548584e+003,3.947478e+001
1.550513e+003,3.985744e+001
1.552441e+003,3.957586e+001
1.554370e+003,4.021513e+001
1.556298e+003,4.036278e+001
1.558227e+003,4.162654e+001
1.560155e+003,4.250854e+001
1.562084e+003,4.035728e+001
1.564012e+003,3.986452e+001
1.565941e+003,3.988284e+001
1.567869e+003,3.980943e+001
1.569798e+003,4.078805e+001
1.571726e+003,4.010117e+001
1.573655e+003,3.949303e+001
1.575583e+003,4.044336e+001
1.577512e+003,4.094216e+001
1.579440e+003,3.976859e+001
1.581369e+003,3.938306e+001
1.583297e+003,3.937692e+001
1.585226e+003,3.939737e+001
1.587154e+003,3.938885e+001
1.589083e+003,3.942943e+001
1.591011e+003,3.947091e+001
1.592940e+003,3.946622e+001
1.594868e+003,3.961948e+001
1.596797e+003,3.958698e+001
1.598725e+003,3.936903e+001
1.600654e+003,3.940626e+001
1.602582e+003,3.956699e+001
1.604511e+003,3.955325e+001
1.606439e+003,3.956275e+001
1.608368e+003,3.980657e+001
1.610296e+003,3.971983e+001
1.612225e+003,3.946081e+001
1.614153e+003,3.938239e+001
1.616082e+003,4.034969e+001
1.618010e+003,4.069904e+001
1.619939e+003,3.977018e+001
1.621867e+003,3.977771e+001
1.623796e+003,4.037849e+001
1.625724e+003,3.983132e+001
1.627653e+003,3.984203e+001
1.629581e+003,3.965234e+001
1.631510e+003,3.917793e+001
1.633438e+003,3.909441e+001
1.635367e+003,4.068936e+001
1.637295e+003,4.135040e+001
1.639224e+003,4.007618e+001
1.641152e+003,3.963182e+001
1.643081e+003,3.945288e+001
1.645009e+003,3.977621e+001
1.646938e+003,4.188789e+001
1.648866e+003,4.130326e+001
1.650795e+003,3.999174e+001
1.652723e+003,4.138133e+001
1.654652e+003,4.245611e+001
1.656580e+003,4.069299e+001
1.658509e+003,3.989059e+001
1.660437e+003,3.982638e+001
1.662366e+003,4.049419e+001
1.664294e+003,4.041385e+001
1.666223e+003,3.979183e+001
1.668151e+003,4.044082e+001
1.670080e+003,4.176411e+001
1.672008e+003,4.106607e+001
1.673937e+003,4.050714e+001
1.675865e+003,4.107269e+001
1.677794e+003,4.051043e+001
1.679722e+003,4.061729e+001
1.681651e+003,4.073298e+001
1.683579e+003,4.198937e+001
1.685508e+003,4.274535e+001
1.687436e+003,4.140664e+001
1.689365e+003,4.118922e+001
1.691293e+003,4.083835e+001
1.693222e+003,4.038812e+001
1.695150e+003,4.135455e+001
1.697079e+003,4.296285e+001
1.699007e+003,4.235989e+001
1.700936e+003,4.288489e+001
1.702864e+003,4.186687e+001
1.704793e+003,4.182391e+001
1.706721e+003,4.198499e+001
1.708650e+003,4.127782e+001
1.710578e+003,4.109659e+001
1.712507e+003,4.107645e+001
1.714435e+003,4.188065e+001
1.716364e+003,4.291386e+001
1.718292e+003,4.334134e+001
1.720221e+003,4.193266e+001
1.722149e+003,4.123595e+001
1.724078e+003,4.127378e+001
1.726006e+003,4.104119e+001
1.727935e+003,4.102049e+001
1.729863e+003,4.162661e+001
1.731792e+003,4.195511e+001
1.733720e+003,4.324950e+001
1.735649e+003,4.310744e+001
1.737577e+003,4.186598e+001
1.739506e+003,4.225053e+001
1.741434e+003,4.230878e+001
1.743363e+003,4.239281e+001
1.745291e+003,4.240390e+001
1.747220e+003,4.267707e+001
1.749148e+003,4.317892e+001
1.751077e+003,4.311186e+001
1.753005e+003,4.233150e+001
1.754934e+003,4.163826e+001
1.756862e+003,4.210104e+001
1.758791e+003,4.199466e+001
1.760719e+003,4.206690e+001
1.762648e+003,4.251976e+001
1.764576e+003,4.190483e+001
1.766505e+003,4.173819e+001
1.768433e+003,4.225109e+001
1.770362e+003,4.251277e+001
1.772290e+003,4.374497e+001
1.774219e+003,4.322091e+001
1.776147e+003,4.244778e+001
1.778076e+003,4.215409e+001
1.780004e+003,4.242846e+001
1.781933e+003,4.241346e+001
1.783861e+003,4.221547e+001
1.785790e+003,4.232814e+001
1.787718e+003,4.207445e+001
1.789647e+003,4.214454e+001
1.791575e+003,4.308595e+001
1.793504e+003,4.342573e+001
1.795432e+003,4.287354e+001
1.797361e+003,4.254761e+001
1.799289e+003,4.261915e+001
1.801218e+003,4.307601e+001
1.803146e+003,4.276408e+001
1.805075e+003,4.244034e+001
1.807003e+003,4.236500e+001
1.808932e+003,4.253135e+001
1.810860e+003,4.289277e+001
1.812789e+003,4.280941e+001
1.814717e+003,4.237227e+001
1.816646e+003,4.239558e+001
1.818574e+003,4.240499e+001
1.820503e+003,4.236142e+001
1.822431e+003,4.239293e+001
1.824360e+003,4.284130e+001
1.826288e+003,4.301613e+001
1.828217e+003,4.294117e+001
1.830145e+003,4.364984e+001
1.832074e+003,4.311002e+001
1.834002e+003,4.269367e+001
1.835931e+003,4.280087e+001
1.837859e+003,4.283530e+001
1.839788e+003,4.267480e+001
1.841716e+003,4.256210e+001
1.843645e+003,4.333195e+001
1.845573e+003,4.371973e+001
1.847502e+003,4.317761e+001
1.849430e+003,4.284055e+001
1.851359e+003,4.262198e+001
1.853287e+003,4.261341e+001
1.855216e+003,4.259003e+001
1.857144e+003,4.266994e+001
1.859073e+003,4.272759e+001
1.861001e+003,4.273260e+001
1.862930e+003,4.269556e+001
1.864858e+003,4.269882e+001
1.866786e+003,4.310672e+001
1.868715e+003,4.389424e+001
1.870644e+003,4.345469e+001
1.872572e+003,4.275613e+001
1.874500e+003,4.257916e+001
1.876429e+003,4.258627e+001
1.878358e+003,4.259251e+001
1.880286e+003,4.255559e+001
1.882215e+003,4.256042e+001
1.884143e+003,4.263005e+001
1.886072e+003,4.259682e+001
1.888000e+003,4.263453e+001
1.889929e+003,4.299917e+001
1.891857e+003,4.266209e+001
1.893786e+003,4.253584e+001
1.895714e+003,4.269189e+001
1.897643e+003,4.248088e+001
1.899571e+003,4.233902e+001
1.901500e+003,4.236272e+001
1.903428e+003,4.235593e+001
1.905357e+003,4.230330e+001
1.907285e+003,4.238251e+001
1.909214e+003,4.260830e+001
1.911142e+003,4.247046e+001
1.913071e+003,4.218131e+001
1.914999e+003,4.209380e+001
1.916927e+003,4.228817e+001
1.918856e+003,4.255893e+001
1.920785e+003,4.232477e+001
1.922713e+003,4.260575e+001
1.924641e+003,4.243913e+001
1.926570e+003,4.215336e+001
1.928499e+003,4.211390e+001
1.930427e+003,4.205812e+001
1.932355e+003,4.210923e+001
1.934284e+003,4.216159e+001
1.936213e+003,4.213220e+001
1.938141e+003,4.210635e+001
1.940069e+003,4.207627e+001
1.941998e+003,4.244273e+001
1.943927e+003,4.258948e+001
1.945855e+003,4.235345e+001
1.947783e+003,4.218851e+001
1.949712e+003,4.200467e+001
1.951641e+003,4.198896e+001
1.953569e+003,4.206180e+001
1.955497e+003,4.211935e+001
1.957426e+003,4.203596e+001
1.959354e+003,4.203376e+001
1.961283e+003,4.201518e+001
1.963211e+003,4.194286e+001
1.965140e+003,4.203222e+001
1.967068e+003,4.232336e+001
1.968997e+003,4.218676e+001
1.970925e+003,4.197413e+001
1.972854e+003,4.192638e+001
1.974782e+003,4.192370e+001
1.976711e+003,4.193101e+001
1.978639e+003,4.191621e+001
1.980568e+003,4.186749e+001
1.982496e+003,4.187589e+001
1.984425e+003,4.183490e+001
1.986354e+003,4.185003e+001
1.988282e+003,4.197103e+001
1.990210e+003,4.200056e+001
1.992139e+003,4.219607e+001
1.994068e+003,4.204957e+001
1.995996e+003,4.179225e+001
1.997924e+003,4.177017e+001
1.999853e+003,4.173028e+001
2.001781e+003,4.171820e+001
2.003710e+003,4.167270e+001
2.005638e+003,4.166933e+001
2.007567e+003,4.166498e+001
2.009495e+003,4.165161e+001
2.011424e+003,4.160066e+001
2.013352e+003,4.156279e+001
2.015281e+003,4.158059e+001
2.017209e+003,4.171558e+001
2.019138e+003,4.161160e+001
2.021066e+003,4.146083e+001
2.022995e+003,4.137160e+001
2.024923e+003,4.132640e+001
2.026852e+003,4.133629e+001
2.028780e+003,4.136294e+001
2.030709e+003,4.131326e+001
2.032637e+003,4.128676e+001
2.034566e+003,4.125349e+001
2.036494e+003,4.123759e+001
2.038423e+003,4.122047e+001
2.040351e+003,4.129340e+001
2.042280e+003,4.125019e+001
2.044208e+003,4.115567e+001
2.046137e+003,4.112896e+001
2.048065e+003,4.109739e+001
2.049994e+003,4.105700e+001
2.051922e+003,4.106211e+001
2.053851e+003,4.105235e+001
2.055779e+003,4.102915e+001
2.057708e+003,4.103021e+001
2.059636e+003,4.102591e+001
2.061565e+003,4.094865e+001
2.063493e+003,4.094536e+001
2.065422e+003,4.100454e+001
2.067350e+003,4.089921e+001
2.069279e+003,4.083434e+001
2.071207e+003,4.084826e+001
2.073136e+003,4.086241e+001
2.075064e+003,4.084864e+001
2.076993e+003,4.079290e+001
2.078921e+003,4.076424e+001
2.080850e+003,4.072334e+001
2.082778e+003,4.068151e+001
2.084707e+003,4.066605e+001
2.086635e+003,4.068372e+001
2.088564e+003,4.069354e+001
2.090492e+003,4.070373e+001
2.092421e+003,4.065865e+001
2.094349e+003,4.062035e+001
2.096278e+003,4.054510e+001
2.098206e+003,4.049972e+001
2.100135e+003,4.050518e+001
2.102063e+003,4.049635e+001
2.103992e+003,4.045331e+001
2.105920e+003,4.042996e+001
2.107849e+003,4.041660e+001
2.109777e+003,4.038351e+001
2.111706e+003,4.031019e+001
2.113634e+003,4.028619e+001
2.115563e+003,4.029679e+001
2.117491e+003,4.031129e+001
2.119420e+003,4.032828e+001
2.121348e+003,4.031024e+001
2.123277e+003,4.025662e+001
2.125205e+003,4.019291e+001
2.127134e+003,4.011728e+001
2.129062e+003,4.013778e+001
2.130991e+003,4.011192e+001
2.132919e+003,4.004029e+001
2.134848e+003,3.997565e+001
2.136776e+003,3.995204e+001
2.138705e+003,3.997221e+001
2.140633e+003,3.998921e+001
2.142562e+003,3.993032e+001
2.144490e+003,3.990549e+001
2.146419e+003,3.989906e+001
2.148347e+003,3.988240e+001
2.150276e+003,3.982912e+001
2.152204e+003,3.978638e+001
2.154133e+003,3.974167e+001
2.156061e+003,3.969572e+001
2.157990e+003,3.967780e+001
2.159918e+003,3.968259e+001
2.161847e+003,3.964513e+001
2.163775e+003,3.959413e+001
2.165704e+003,3.957843e+001
2.167632e+003,3.957343e+001
2.169561e+003,3.950773e+001
2.171489e+003,3.949347e+001
2.173418e+003,3.945808e+001
2.175346e+003,3.940647e+001
2.177275e+003,3.940864e+001
2.179203e+003,3.944588e+001
2.181132e+003,3.943080e+001
2.183060e+003,3.935305e+001
2.184989e+003,3.928090e+001
2.186917e+003,3.922706e+001
2.188846e+003,3.918563e+001
2.190774e+003,3.914972e+001
2.192703e+003,3.915432e+001
2.194631e+003,3.913464e+001
2.196560e+003,3.905110e+001
2.198488e+003,3.902549e+001
2.200417e+003,3.899228e+001
2.202345e+003,3.890400e+001
2.204274e+003,3.885698e+001
2.206202e+003,3.888331e+001
2.208131e+003,3.887247e+001
2.210059e+003,3.877811e+001
2.211988e+003,3.874832e+001
2.213916e+003,3.877460e+001
2.215845e+003,3.875982e+001
2.217773e+003,3.875260e+001
2.219702e+003,3.869635e+001
2.221630e+003,3.863712e+001
2.223559e+003,3.861169e+001
2.225487e+003,3.858686e+001
2.227416e+003,3.851472e+001
2.229344e+003,3.846522e+001
2.231273e+003,3.845992e+001
2.233201e+003,3.841453e+001
2.235130e+003,3.836107e+001
2.237058e+003,3.830971e+001
2.238987e+003,3.826706e+001
2.240915e+003,3.822917e+001
2.242844e+003,3.816360e+001
2.244772e+003,3.812578e+001
2.246701e+003,3.807950e+001
2.248629e+003,3.799124e+001
2.250558e+003,3.793050e+001
2.252486e+003,3.785661e+001
2.254415e+003,3.774397e+001
2.256343e+003,3.765210e+001
2.258272e+003,3.761019e+001
2.260200e+003,3.754037e+001
2.262129e+003,3.742191e+001
2.264057e+003,3.731438e+001
2.265986e+003,3.723792e+001
2.267914e+003,3.719246e+001
2.269843e+003,3.718494e+001
2.271771e+003,3.716506e+001
2.273700e+003,3.712913e+001
2.275628e+003,3.708423e+001
2.277557e+003,3.701603e+001
2.279485e+003,3.704733e+001
2.281414e+003,3.715546e+001
2.283342e+003,3.713162e+001
2.285271e+003,3.688456e+001
2.287199e+003,3.662945e+001
2.289128e+003,3.634863e+001
2.291056e+003,3.602171e+001
2.292985e+003,3.571023e+001
2.294913e+003,3.540531e+001
2.296842e+003,3.511258e+001
2.298770e+003,3.480722e+001
2.300699e+003,3.449833e+001
2.302627e+003,3.423825e+001
2.304556e+003,3.376709e+001
2.306484e+003,3.311521e+001
2.308413e+003,3.247871e+001
2.310341e+003,3.197113e+001
2.312270e+003,3.158904e+001
2.314198e+003,3.129132e+001
2.316127e+003,3.084414e+001
2.318055e+003,3.006460e+001
2.319984e+003,2.913317e+001
2.321912e+003,2.842755e+001
2.323841e+003,2.792558e+001
2.325769e+003,2.741789e+001
2.327698e+003,2.686885e+001
2.329626e+003,2.649009e+001
2.331555e+003,2.622694e+001
2.333483e+003,2.610800e+001
2.335412e+003,2.573891e+001
2.337340e+003,2.549142e+001
2.339269e+003,2.534217e+001
2.341197e+003,2.514524e+001
2.343126e+003,2.525111e+001
2.345054e+003,2.624872e+001
2.346983e+003,2.797214e+001
2.348911e+003,2.817483e+001
2.350840e+003,2.674617e+001
2.352768e+003,2.526990e+001
2.354697e+003,2.386762e+001
2.356625e+003,2.287143e+001
2.358554e+003,2.235105e+001
2.360482e+003,2.217419e+001
2.362411e+003,2.230276e+001
2.364339e+003,2.296022e+001
2.366268e+003,2.378511e+001
2.368196e+003,2.495181e+001
2.370125e+003,2.622702e+001
2.372053e+003,2.755134e+001
2.373982e+003,2.891786e+001
2.375910e+003,3.019985e+001
2.377839e+003,3.130493e+001
2.379767e+003,3.233128e+001
2.381696e+003,3.325639e+001
2.383624e+003,3.410760e+001
2.385553e+003,3.463190e+001
2.387481e+003,3.485075e+001
2.389410e+003,3.494081e+001
2.391338e+003,3.499903e+001
2.393267e+003,3.498627e+001
2.395195e+003,3.490876e+001
2.397124e+003,3.485773e+001
2.399052e+003,3.483090e+001
2.400981e+003,3.475266e+001
2.402909e+003,3.470510e+001
2.404838e+003,3.463335e+001
2.406766e+003,3.457914e+001
2.408695e+003,3.458307e+001
2.410623e+003,3.457535e+001
2.412552e+003,3.455316e+001
2.414480e+003,3.452001e+001
2.416409e+003,3.440009e+001
2.418337e+003,3.433172e+001
2.420266e+003,3.428582e+001
2.422194e+003,3.423928e+001
2.424123e+003,3.420084e+001
2.426051e+003,3.418516e+001
2.427980e+003,3.411995e+001
2.429908e+003,3.406943e+001
2.431837e+003,3.410078e+001
2.433765e+003,3.407632e+001
2.435694e+003,3.397757e+001
2.437622e+003,3.390648e+001
2.439551e+003,3.386925e+001
2.441479e+003,3.381103e+001
2.443408e+003,3.376401e+001
2.445336e+003,3.372977e+001
2.447265e+003,3.364282e+001
2.449193e+003,3.356252e+001
2.451122e+003,3.356528e+001
2.453050e+003,3.356815e+001
2.454979e+003,3.349249e+001
2.456907e+003,3.344463e+001
2.458836e+003,3.336678e+001
2.460764e+003,3.332890e+001
2.462693e+003,3.328802e+001
2.464621e+003,3.326667e+001
2.466550e+003,3.326183e+001
2.468478e+003,3.322366e+001
2.470406e+003,3.311270e+001
2.472335e+003,3.302465e+001
2.474264e+003,3.296870e+001
2.476192e+003,3.295937e+001
2.478121e+003,3.293319e+001
2.480049e+003,3.287627e+001
2.481978e+003,3.281530e+001
2.483906e+003,3.277595e+001
2.485834e+003,3.268791e+001
2.487763e+003,3.262469e+001
2.489692e+003,3.263336e+001
2.491620e+003,3.263256e+001
2.493549e+003,3.255517e+001
2.495477e+003,3.249742e+001
2.497406e+003,3.245989e+001
2.499334e+003,3.247049e+001
2.501262e+003,3.241874e+001
2.503191e+003,3.234830e+001
2.505120e+003,3.227689e+001
2.507048e+003,3.219369e+001
2.508977e+003,3.214245e+001
2.510905e+003,3.211530e+001
2.512833e+003,3.207520e+001
2.514762e+003,3.207133e+001
2.516690e+003,3.199317e+001
2.518619e+003,3.188072e+001
2.520548e+003,3.181731e+001
2.522476e+003,3.183309e+001
2.524405e+003,3.187115e+001
2.526333e+003,3.186089e+001
2.528261e+003,3.179579e+001
2.530190e+003,3.171202e+001
2.532119e+003,3.165364e+001
2.534047e+003,3.159957e+001
2.535976e+003,3.153771e+001
2.537904e+003,3.149508e+001
2.539833e+003,3.141402e+001
2.541761e+003,3.136298e+001
2.543689e+003,3.131773e+001
2.545618e+003,3.127327e+001
2.547547e+003,3.123834e+001
2.549475e+003,3.120784e+001
2.551404e+003,3.114958e+001
2.553332e+003,3.110457e+001
2.555260e+003,3.104496e+001
2.557189e+003,3.099371e+001
2.559117e+003,3.092578e+001
2.561046e+003,3.088234e+001
2.562975e+003,3.080974e+001
2.564903e+003,3.081620e+001
2.566832e+003,3.079395e+001
2.568760e+003,3.074988e+001
2.570688e+003,3.068647e+001
2.572617e+003,3.064289e+001
2.574545e+003,3.060030e+001
2.576474e+003,3.054107e+001
2.578403e+003,3.049714e+001
2.580331e+003,3.049029e+001
2.582260e+003,3.042695e+001
2.584188e+003,3.036681e+001
2.586116e+003,3.033394e+001
2.588045e+003,3.030725e+001
2.589973e+003,3.025089e+001
2.591902e+003,3.019603e+001
2.593831e+003,3.016373e+001
2.595759e+003,3.010914e+001
2.597688e+003,3.004302e+001
2.599616e+003,2.998168e+001
2.601544e+003,2.994906e+001
2.603473e+003,2.995054e+001
2.605401e+003,2.996737e+001
2.607330e+003,2.986877e+001
2.609259e+003,2.973162e+001
2.611187e+003,2.972126e+001
2.613115e+003,2.970585e+001
2.615044e+003,2.965692e+001
2.616972e+003,2.961908e+001
2.618901e+003,2.960024e+001
2.620830e+003,2.950109e+001
2.622758e+003,2.941515e+001
2.624687e+003,2.935648e+001
2.626615e+003,2.935601e+001
2.628543e+003,2.929883e+001
2.630472e+003,2.922499e+001
2.632400e+003,2.917320e+001
2.634329e+003,2.916455e+001
2.636258e+003,2.911967e+001
2.638186e+003,2.910310e+001
2.640115e+003,2.910125e+001
2.642043e+003,2.900817e+001
2.643971e+003,2.894559e+001
2.645900e+003,2.893418e+001
2.647828e+003,2.889710e+001
2.649757e+003,2.883920e+001
2.651686e+003,2.882139e+001
2.653614e+003,2.878824e+001
2.655542e+003,2.876919e+001
2.657471e+003,2.874995e+001
2.659399e+003,2.865602e+001
2.661328e+003,2.853281e+001
2.663256e+003,2.844908e+001
2.665185e+003,2.844805e+001
2.667114e+003,2.848316e+001
2.669042e+003,2.845561e+001
2.670970e+003,2.839558e+001
2.672899e+003,2.830777e+001
2.674827e+003,2.821916e+001
2.676756e+003,2.821311e+001
2.678684e+003,2.821451e+001
2.680613e+003,2.821698e+001
2.682542e+003,2.811995e+001
2.684470e+003,2.806004e+001
2.686398e+003,2.801910e+001
2.688327e+003,2.793169e+001
2.690255e+003,2.790022e+001
2.692184e+003,2.791768e+001
2.694112e+003,2.792333e+001
2.696041e+003,2.785757e+001
2.697969e+003,2.778032e+001
2.699898e+003,2.775027e+001
2.701826e+003,2.772435e+001
2.703755e+003,2.768089e+001
2.705683e+003,2.766149e+001
2.707612e+003,2.758653e+001
2.709540e+003,2.749726e+001
2.711469e+003,2.746569e+001
2.713397e+003,2.742462e+001
2.715326e+003,2.739521e+001
2.717254e+003,2.737749e+001
2.719183e+003,2.732460e+001
2.721111e+003,2.730183e+001
2.723040e+003,2.725917e+001
2.724969e+003,2.723167e+001
2.726897e+003,2.721585e+001
2.728825e+003,2.714309e+001
2.730754e+003,2.713812e+001
2.732682e+003,2.710941e+001
2.734611e+003,2.708641e+001
2.736539e+003,2.703073e+001
2.738468e+003,2.693082e+001
2.740396e+003,2.687712e+001
2.742325e+003,2.687165e+001
2.744253e+003,2.683422e+001
2.746182e+003,2.682521e+001
2.748110e+003,2.677444e+001
2.750039e+003,2.672105e+001
2.751967e+003,2.665469e+001
2.753896e+003,2.665990e+001
2.755824e+003,2.666677e+001
2.757753e+003,2.661923e+001
2.759681e+003,2.656589e+001
2.761610e+003,2.650242e+001
2.763538e+003,2.640140e+001
2.765467e+003,2.637229e+001
2.767395e+003,2.638402e+001
2.769324e+003,2.631099e+001
2.771252e+003,2.633900e+001
2.773181e+003,2.635146e+001
2.775109e+003,2.624320e+001
2.777038e+003,2.621452e+001
2.778966e+003,2.619384e+001
2.780895e+003,2.616301e+001
2.782823e+003,2.613815e+001
2.784752e+003,2.611436e+001
2.786680e+003,2.607094e+001
2.788609e+003,2.598157e+001
2.790537e+003,2.593719e+001
2.792466e+003,2.594961e+001
2.794394e+003,2.595877e+001
2.796323e+003,2.592202e+001
2.798251e+003,2.584568e+001
2.800180e+003,2.580992e+001
2.802108e+003,2.581340e+001
2.804037e+003,2.576821e+001
2.805965e+003,2.568035e+001
2.807894e+003,2.564892e+001
2.809822e+003,2.566099e+001
2.811751e+003,2.567332e+001
2.813679e+003,2.563807e+001
2.815608e+003,2.559402e+001
2.817536e+003,2.553173e+001
2.819465e+003,2.547296e+001
2.821393e+003,2.549017e+001
2.823322e+003,2.546918e+001
2.825250e+003,2.541679e+001
2.827179e+003,2.536043e+001
2.829107e+003,2.533258e+001
2.831036e+003,2.534965e+001
2.832964e+003,2.529219e+001
2.834893e+003,2.520288e+001
2.836821e+003,2.516112e+001
2.838750e+003,2.509506e+001
2.840678e+003,2.508437e+001
2.842607e+003,2.510794e+001
2.844535e+003,2.509396e+001
2.846464e+003,2.499165e+001
2.848392e+003,2.490393e+001
2.850321e+003,2.489807e+001
2.852249e+003,2.486893e+001
2.854178e+003,2.484879e+001
2.856106e+003,2.479887e+001
2.858035e+003,2.478996e+001
2.859963e+003,2.478141e+001
2.861892e+003,2.480832e+001
2.863820e+003,2.471921e+001
2.865749e+003,2.466459e+001
2.867677e+003,2.470886e+001
2.869606e+003,2.472670e+001
2.871534e+003,2.460398e+001
2.873463e+003,2.454576e+001
2.875391e+003,2.456801e+001
2.877320e+003,2.457591e+001
2.879248e+003,2.452583e+001
2.881177e+003,2.442275e+001
2.883105e+003,2.440844e+001
2.885034e+003,2.444086e+001
2.886962e+003,2.441055e+001
2.888891e+003,2.437773e+001
2.890819e+003,2.434613e+001
2.892748e+003,2.432880e+001
2.894676e+003,2.430759e+001
2.896605e+003,2.430526e+001
2.898533e+003,2.429688e+001
2.900462e+003,2.425616e+001
2.902390e+003,2.423597e+001
2.904319e+003,2.427309e+001
2.906247e+003,2.422473e+001
2.908176e+003,2.416994e+001
2.910104e+003,2.410329e+001
2.912033e+003,2.407787e+001
2.913961e+003,2.404167e+001
2.915890e+003,2.398136e+001
2.917818e+003,2.401693e+001
2.919747e+003,2.406304e+001
2.921675e+003,2.400046e+001
2.923604e+003,2.395315e+001
2.925532e+003,2.391408e+001
2.927461e+003,2.393237e+001
2.929389e+003,2.397396e+001
2.931318e+003,2.390918e+001
2.933246e+003,2.387815e+001
2.935175e+003,2.388378e+001
2.937103e+003,2.384155e+001
2.939032e+003,2.382639e+001
2.940960e+003,2.380148e+001
2.942889e+003,2.376091e+001
2.944817e+003,2.380412e+001
2.946746e+003,2.384433e+001
2.948674e+003,2.378290e+001
2.950603e+003,2.378891e+001
2.952531e+003,2.374117e+001
2.954460e+003,2.372074e+001
2.956388e+003,2.375664e+001
2.958317e+003,2.371552e+001
2.960245e+003,2.367584e+001
2.962174e+003,2.374218e+001
2.964102e+003,2.370060e+001
2.966031e+003,2.364508e+001
2.967959e+003,2.366821e+001
2.969888e+003,2.363163e+001
2.971816e+003,2.355992e+001
2.973745e+003,2.353747e+001
2.975673e+003,2.350014e+001
2.977602e+003,2.349586e+001
2.979530e+003,2.351938e+001
2.981459e+003,2.356284e+001
2.983387e+003,2.355647e+001
2.985316e+003,2.351172e+001
2.987244e+003,2.352268e+001
2.989173e+003,2.353551e+001
2.991101e+003,2.353338e+001
2.993030e+003,2.354694e+001
2.994958e+003,2.351408e+001
2.996887e+003,2.353688e+001
2.998815e+003,2.352862e+001
3.000744e+003,2.349989e+001
3.002672e+003,2.351488e+001
3.004601e+003,2.353799e+001
3.006529e+003,2.349103e+001
3.008458e+003,2.344987e+001
3.010386e+003,2.347671e+001
3.012315e+003,2.348634e+001
3.014243e+003,2.345243e+001
3.016172e+003,2.344654e+001
3.018100e+003,2.350620e+001
3.020029e+003,2.352279e+001
3.021957e+003,2.345547e+001
3.023886e+003,2.349911e+001
3.025814e+003,2.349828e+001
3.027743e+003,2.349659e+001
3.029671e+003,2.355077e+001
3.031600e+003,2.357393e+001
3.033528e+003,2.354675e+001
3.035457e+003,2.353878e+001
3.037385e+003,2.346584e+001
3.039314e+003,2.338638e+001
3.041242e+003,2.340698e+001
3.043171e+003,2.342421e+001
3.045099e+003,2.344674e+001
3.047028e+003,2.345978e+001
3.048956e+003,2.344184e+001
3.050885e+003,2.342811e+001
3.052813e+003,2.341331e+001
3.054742e+003,2.343036e+001
3.056670e+003,2.345624e+001
3.058599e+003,2.344292e+001
3.060527e+003,2.338536e+001
3.062456e+003,2.338640e+001
3.064384e+003,2.339905e+001
3.066313e+003,2.337425e+001
3.068241e+003,2.332608e+001
3.070170e+003,2.331138e+001
3.072098e+003,2.340051e+001
3.074027e+003,2.338826e+001
3.075955e+003,2.336499e+001
3.077884e+003,2.340968e+001
3.079812e+003,2.347611e+001
3.081741e+003,2.346545e+001
3.083669e+003,2.336734e+001
3.085598e+003,2.328267e+001
3.087526e+003,2.334705e+001
3.089455e+003,2.344728e+001
3.091383e+003,2.343610e+001
3.093312e+003,2.340120e+001
3.095240e+003,2.341082e+001
3.097169e+003,2.346522e+001
3.099097e+003,2.344497e+001
3.101026e+003,2.346948e+001
3.102954e+003,2.351692e+001
3.104883e+003,2.347195e+001
3.106811e+003,2.343373e+001
3.108740e+003,2.342532e+001
3.110668e+003,2.344868e+001
3.112597e+003,2.340871e+001
3.114525e+003,2.341542e+001
3.116454e+003,2.343818e+001
3.118382e+003,2.345993e+001
3.120311e+003,2.350975e+001
3.122239e+003,2.346698e+001
3.124167e+003,2.338231e+001
3.126096e+003,2.338415e+001
3.128025e+003,2.343886e+001
3.129953e+003,2.340640e+001
3.131882e+003,2.341830e+001
3.133810e+003,2.338744e+001
3.135739e+003,2.334727e+001
3.137667e+003,2.340446e+001
3.139595e+003,2.337233e+001
3.141524e+003,2.331769e+001
3.143453e+003,2.330739e+001
3.145381e+003,2.329619e+001
3.147310e+003,2.333658e+001
3.149238e+003,2.333149e+001
3.151167e+003,2.339592e+001
3.153095e+003,2.345023e+001
3.155023e+003,2.339327e+001
3.156952e+003,2.333005e+001
3.158881e+003,2.338825e+001
3.160809e+003,2.339904e+001
3.162738e+003,2.338153e+001
3.164666e+003,2.335687e+001
3.166594e+003,2.342611e+001
3.168523e+003,2.347201e+001
3.170452e+003,2.343018e+001
3.172380e+003,2.342296e+001
3.174309e+003,2.340821e+001
3.176237e+003,2.345739e+001
3.178166e+003,2.354858e+001
3.180094e+003,2.349943e+001
3.182022e+003,2.343128e+001
3.183951e+003,2.339200e+001
3.185880e+003,2.339050e+001
3.187808e+003,2.339254e+001
3.189737e+003,2.347755e+001
3.191665e+003,2.350888e+001
3.193594e+003,2.344088e+001
3.195522e+003,2.337626e+001
3.197450e+003,2.345872e+001
3.199379e+003,2.351429e+001
3.201308e+003,2.347652e+001
3.203236e+003,2.347183e+001
3.205165e+003,2.351687e+001
3.207093e+003,2.349065e+001
3.209021e+003,2.347730e+001
3.210950e+003,2.344722e+001
3.212878e+003,2.353032e+001
3.214807e+003,2.361532e+001
3.216736e+003,2.357434e+001
3.218664e+003,2.358107e+001
3.220593e+003,2.359504e+001
3.222521e+003,2.361867e+001
3.224449e+003,2.358770e+001
3.226378e+003,2.353228e+001
3.228306e+003,2.352946e+001
3.230235e+003,2.358493e+001
3.232164e+003,2.357038e+001
3.234092e+003,2.352578e+001
3.236021e+003,2.360293e+001
3.237949e+003,2.361652e+001
3.239877e+003,2.360218e+001
3.241806e+003,2.354888e+001
3.243734e+003,2.354699e+001
3.245663e+003,2.360484e+001
3.247592e+003,2.354803e+001
3.249520e+003,2.348595e+001
3.251448e+003,2.352067e+001
3.253377e+003,2.359845e+001
3.255305e+003,2.366133e+001
3.257234e+003,2.362724e+001
3.259162e+003,2.357139e+001
3.261091e+003,2.356718e+001
3.263020e+003,2.362705e+001
3.264948e+003,2.362348e+001
3.266876e+003,2.357466e+001
3.268805e+003,2.356960e+001
3.270733e+003,2.362622e+001
3.272662e+003,2.365907e+001
3.274591e+003,2.368897e+001
3.276519e+003,2.374839e+001
3.278448e+003,2.375406e+001
3.280376e+003,2.373463e+001
3.282304e+003,2.372501e+001
3.284233e+003,2.379398e+001
3.286161e+003,2.383733e+001
3.288090e+003,2.383335e+001
3.290019e+003,2.374506e+001
3.291947e+003,2.371775e+001
3.293875e+003,2.372464e+001
3.295804e+003,2.371695e+001
3.297732e+003,2.376532e+001
3.299661e+003,2.377022e+001
3.301589e+003,2.377052e+001
3.303518e+003,2.373260e+001
3.305447e+003,2.368713e+001
3.307375e+003,2.377965e+001
3.309303e+003,2.396982e+001
3.311232e+003,2.401062e+001
3.313160e+003,2.393687e+001
3.315089e+003,2.392201e+001
3.317017e+003,2.396116e+001
3.318946e+003,2.391292e+001
3.320875e+003,2.388334e+001
3.322803e+003,2.378961e+001
3.324731e+003,2.375687e+001
3.326660e+003,2.383493e+001
3.328588e+003,2.385426e+001
3.330517e+003,2.375164e+001
3.332445e+003,2.373418e+001
3.334374e+003,2.373670e+001
3.336302e+003,2.375210e+001
3.338231e+003,2.375065e+001
3.340159e+003,2.380162e+001
3.342088e+003,2.387685e+001
3.344016e+003,2.386565e+001
3.345945e+003,2.377566e+001
3.347873e+003,2.372331e+001
3.349802e+003,2.373677e+001
3.351730e+003,2.390578e+001
3.353659e+003,2.395023e+001
3.355587e+003,2.377066e+001
3.357516e+003,2.366354e+001
3.359444e+003,2.371227e+001
3.361373e+003,2.374092e+001
3.363302e+003,2.377257e+001
3.365230e+003,2.370523e+001
3.367158e+003,2.367334e+001
3.369087e+003,2.381648e+001
3.371015e+003,2.384614e+001
3.372944e+003,2.382140e+001
3.374872e+003,2.377648e+001
3.376801e+003,2.360775e+001
3.378729e+003,2.362250e+001
3.380658e+003,2.374081e+001
3.382586e+003,2.378310e+001
3.384515e+003,2.382413e+001
3.386443e+003,2.373196e+001
3.388372e+003,2.371268e+001
3.390300e+003,2.371255e+001
3.392229e+003,2.380446e+001
3.394157e+003,2.384048e+001
3.396086e+003,2.387775e+001
3.398014e+003,2.388617e+001
3.399943e+003,2.375455e+001
3.401871e+003,2.376717e+001
3.403800e+003,2.380547e+001
3.405728e+003,2.375903e+001
3.407657e+003,2.374252e+001
3.409585e+003,2.378827e+001
3.411514e+003,2.381642e+001
3.413442e+003,2.384790e+001
3.415371e+003,2.378716e+001
3.417299e+003,2.368333e+001
3.419228e+003,2.378886e+001
3.421156e+003,2.398038e+001
3.423085e+003,2.385423e+001
3.425013e+003,2.378547e+001
3.426942e+003,2.386798e+001
3.428870e+003,2.387212e+001
3.430799e+003,2.397342e+001
3.432727e+003,2.388968e+001
3.434656e+003,2.384049e+001
3.436584e+003,2.396647e+001
3.438513e+003,2.399158e+001
3.440441e+003,2.400595e+001
3.442370e+003,2.407735e+001
3.444298e+003,2.399997e+001
3.446227e+003,2.410135e+001
3.448155e+003,2.429905e+001
3.450084e+003,2.422895e+001
3.452012e+003,2.415116e+001
3.453941e+003,2.409201e+001
3.455869e+003,2.413385e+001
3.457798e+003,2.410356e+001
3.459726e+003,2.417121e+001
3.461655e+003,2.427586e+001
3.463583e+003,2.437432e+001
3.465512e+003,2.421901e+001
3.467440e+003,2.419120e+001
3.469369e+003,2.422610e+001
3.471297e+003,2.424263e+001
3.473226e+003,2.423104e+001
3.475154e+003,2.435657e+001
3.477083e+003,2.441261e+001
3.479011e+003,2.445937e+001
3.480940e+003,2.454515e+001
3.482868e+003,2.465398e+001
3.484797e+003,2.459062e+001
3.486725e+003,2.466227e+001
3.488654e+003,2.472016e+001
3.490582e+003,2.468584e+001
3.492511e+003,2.454509e+001
3.494439e+003,2.451489e+001
3.496368e+003,2.455836e+001
3.498296e+003,2.453961e+001
3.500225e+003,2.446804e+001
3.502153e+003,2.483695e+001
3.504082e+003,2.519107e+001
3.506010e+003,2.493818e+001
3.507939e+003,2.474401e+001
3.509867e+003,2.504049e+001
3.511796e+003,2.506592e+001
3.513724e+003,2.505331e+001
3.515653e+003,2.506516e+001
3.517581e+003,2.504490e+001
3.519510e+003,2.491750e+001
3.521438e+003,2.493337e+001
3.523367e+003,2.531646e+001
3.525295e+003,2.536890e+001
3.527224e+003,2.543324e+001
3.529152e+003,2.550961e+001
3.531081e+003,2.523298e+001
3.533009e+003,2.498606e+001
3.534938e+003,2.504598e+001
3.536866e+003,2.514792e+001
3.538795e+003,2.510823e+001
3.540723e+003,2.511622e+001
3.542652e+003,2.511694e+001
3.544580e+003,2.536013e+001
3.546509e+003,2.561174e+001
3.548437e+003,2.560652e+001
3.550366e+003,2.542046e+001
3.552294e+003,2.567797e+001
3.554223e+003,2.556483e+001
3.556151e+003,2.543431e+001
3.558080e+003,2.536580e+001
3.560008e+003,2.546421e+001
3.561937e+003,2.566281e+001
3.563865e+003,2.579211e+001
3.565794e+003,2.631454e+001
3.567722e+003,2.705063e+001
3.569651e+003,2.636230e+001
3.571579e+003,2.593520e+001
3.573508e+003,2.582365e+001
3.575436e+003,2.590938e+001
3.577365e+003,2.590985e+001
3.579293e+003,2.590938e+001
3.581222e+003,2.588430e+001
3.583150e+003,2.584092e+001
3.585079e+003,2.586081e+001
3.587007e+003,2.678142e+001
3.588936e+003,2.687599e+001
3.590864e+003,2.604420e+001
3.592793e+003,2.589918e+001
3.594721e+003,2.643016e+001
3.596650e+003,2.638051e+001
3.598578e+003,2.623001e+001
3.600507e+003,2.652212e+001
3.602435e+003,2.649037e+001
3.604364e+003,2.605494e+001
3.606292e+003,2.616920e+001
3.608221e+003,2.683149e+001
3.610149e+003,2.683750e+001
3.612078e+003,2.687109e+001
3.614006e+003,2.737491e+001
3.615935e+003,2.684114e+001
3.617863e+003,2.704747e+001
3.619792e+003,2.785604e+001
3.621720e+003,2.709721e+001
3.623649e+003,2.645032e+001
3.625577e+003,2.626830e+001
3.627506e+003,2.650325e+001
3.629434e+003,2.835534e+001
3.631363e+003,2.754005e+001
3.633291e+003,2.720430e+001
3.635220e+003,2.701726e+001
3.637148e+003,2.681931e+001
3.639077e+003,2.697779e+001
3.641005e+003,2.705917e+001
3.642934e+003,2.719418e+001
3.644862e+003,2.686242e+001
3.646791e+003,2.745614e+001
3.648719e+003,2.947498e+001
3.650648e+003,2.985566e+001
3.652576e+003,2.805844e+001
3.654505e+003,2.716086e+001
3.656433e+003,2.798941e+001
3.658362e+003,2.770695e+001
3.660290e+003,2.739302e+001
3.662219e+003,2.738637e+001
3.664147e+003,2.735913e+001
3.666076e+003,2.714713e+001
3.668004e+003,2.721453e+001
3.669933e+003,2.893966e+001
3.671861e+003,2.843573e+001
3.673790e+003,2.729438e+001
3.675718e+003,2.940676e+001
3.677647e+003,2.872815e+001
3.679575e+003,2.809469e+001
3.681504e+003,2.760409e+001
3.683432e+003,2.737508e+001
3.685361e+003,2.721790e+001
3.687289e+003,2.745215e+001
3.689218e+003,2.893839e+001
3.691146e+003,2.872026e+001
3.693075e+003,2.787114e+001
3.695003e+003,2.731800e+001
3.696932e+003,2.722639e+001
3.698860e+003,2.699352e+001
3.700789e+003,2.735163e+001
3.702717e+003,2.779405e+001
3.704646e+003,2.737928e+001
3.706574e+003,2.714716e+001
3.708503e+003,2.725124e+001
3.710431e+003,2.823259e+001
3.712360e+003,2.920729e+001
3.714288e+003,2.853126e+001
3.716217e+003,2.764495e+001
3.718145e+003,2.756383e+001
3.720074e+003,2.754930e+001
3.722002e+003,2.778280e+001
3.723931e+003,2.765982e+001
3.725859e+003,2.768134e+001
3.727788e+003,2.766131e+001
3.729716e+003,2.707576e+001
3.731645e+003,2.747447e+001
3.733573e+003,2.820086e+001
3.735502e+003,2.952811e+001
3.737430e+003,2.940666e+001
3.739359e+003,2.863989e+001
3.741287e+003,2.823415e+001
3.743216e+003,2.829436e+001
3.745144e+003,3.035253e+001
3.747073e+003,2.926982e+001
3.749001e+003,2.920156e+001
3.750930e+003,3.084558e+001
3.752858e+003,3.034152e+001
3.754787e+003,2.875709e+001
3.756715e+003,2.835552e+001
3.758644e+003,2.878860e+001
3.760572e+003,2.897028e+001
3.762500e+003,2.821834e+001
3.764429e+003,2.819865e+001
3.766358e+003,2.862594e+001
3.768286e+003,2.835627e+001
3.770215e+003,2.886051e+001
3.772143e+003,2.838975e+001
3.774072e+003,2.799047e+001
3.776000e+003,2.787303e+001
3.777928e+003,2.802369e+001
3.779857e+003,2.879795e+001
3.781786e+003,2.836641e+001
3.783714e+003,2.838739e+001
3.785643e+003,2.862566e+001
3.787571e+003,2.828086e+001
3.789500e+003,2.812755e+001
3.791428e+003,2.802138e+001
3.793356e+003,2.779911e+001
3.795285e+003,2.810430e+001
3.797214e+003,2.893158e+001
3.799142e+003,2.826435e+001
3.801071e+003,2.921841e+001
3.802999e+003,2.967235e+001
3.804927e+003,2.846347e+001
3.806856e+003,2.922290e+001
3.808785e+003,2.894528e+001
3.810713e+003,2.824624e+001
3.812642e+003,2.783782e+001
3.814570e+003,2.782600e+001
3.816499e+003,2.933572e+001
3.818427e+003,2.869103e+001
3.820355e+003,2.911481e+001
3.822284e+003,2.972766e+001
3.824213e+003,2.855305e+001
3.826141e+003,2.857581e+001
3.828070e+003,2.853521e+001
3.829998e+003,2.817349e+001
3.831927e+003,2.876562e+001
3.833855e+003,2.865839e+001
3.835783e+003,2.841435e+001
3.837712e+003,2.925220e+001
3.839641e+003,3.016346e+001
3.841569e+003,2.930295e+001
3.843498e+003,2.901330e+001
3.845426e+003,2.868029e+001
3.847354e+003,2.811300e+001
3.849283e+003,2.818538e+001
3.851211e+003,2.844924e+001
3.853140e+003,3.069208e+001
3.855069e+003,3.024298e+001
3.856997e+003,2.926599e+001
3.858926e+003,2.844269e+001
3.860854e+003,2.825676e+001
3.862782e+003,2.881185e+001
3.864711e+003,2.948650e+001
3.866639e+003,2.871580e+001
3.868568e+003,2.827899e+001
3.870497e+003,2.982730e+001
3.872425e+003,2.887011e+001
3.874354e+003,2.903103e+001
3.876282e+003,2.836567e+001
3.878210e+003,2.767035e+001
3.880139e+003,2.854017e+001
3.882067e+003,2.880595e+001
3.883996e+003,2.833400e+001
3.885925e+003,2.925673e+001
3.887853e+003,2.855406e+001
3.889781e+003,2.817359e+001
3.891710e+003,2.912150e+001
3.893638e+003,2.883123e+001
3.895567e+003,2.805460e+001
3.897495e+003,2.781878e+001
3.899424e+003,2.848437e+001
3.901353e+003,2.885641e+001
3.903281e+003,2.924343e+001
3.905209e+003,2.940752e+001
3.907138e+003,2.859784e+001
3.909066e+003,2.794874e+001
3.910995e+003,2.780262e+001
3.912924e+003,2.786578e+001
3.914852e+003,2.789370e+001
3.916781e+003,2.835682e+001
3.918709e+003,2.850392e+001
3.920637e+003,2.839903e+001
3.922566e+003,2.812798e+001
3.924494e+003,2.855323e+001
3.926423e+003,2.838937e+001
3.928352e+003,2.797013e+001
3.930280e+003,2.802376e+001
3.932208e+003,2.837015e+001
3.934137e+003,2.828838e+001
3.936065e+003,2.792405e+001
3.937994e+003,2.794843e+001
3.939922e+003,2.787996e+001
3.941851e+003,2.811905e+001
3.943780e+003,2.837759e+001
3.945708e+003,2.799807e+001
3.947636e+003,2.801099e+001
3.949565e+003,2.826301e+001
3.951493e+003,2.817290e+001
3.953422e+003,2.799717e+001
3.955350e+003,2.800156e+001
3.957279e+003,2.802719e+001
3.959208e+003,2.787742e+001
3.961136e+003,2.789010e+001
3.963064e+003,2.793939e+001
3.964993e+003,2.794043e+001
3.966921e+003,2.794797e+001
3.968850e+003,2.786452e+001
3.970778e+003,2.784815e+001
3.972707e+003,2.785429e+001
3.974635e+003,2.788908e+001
3.976564e+003,2.785954e+001
3.978492e+003,2.775828e+001
3.980421e+003,2.789217e+001
3.982349e+003,2.790902e+001
3.984278e+003,2.766829e+001
3.986206e+003,2.767166e+001
3.988135e+003,2.772974e+001
3.990063e+003,2.769679e+001
3.991992e+003,2.769068e+001
3.993920e+003,2.774986e+001
3.995849e+003,2.768200e+001
3.997777e+003,2.763692e+001
3.999706e+003,2.768689e+001
