3.991992e+002,5.478071e+001
4.011277e+002,5.066990e+001
4.030562e+002,5.038821e+001
4.049847e+002,4.966514e+001
4.069132e+002,4.781255e+001
4.088417e+002,4.637709e+001
4.107702e+002,4.596038e+001
4.126987e+002,4.468547e+001
4.146272e+002,4.317248e+001
4.165557e+002,4.245306e+001
4.184842e+002,4.082043e+001
4.204127e+002,3.762345e+001
4.223412e+002,3.676464e+001
4.242697e+002,3.454752e+001
4.261982e+002,3.331987e+001
4.281267e+002,3.266056e+001
4.300552e+002,3.126662e+001
4.319837e+002,2.988601e+001
4.339122e+002,2.842136e+001
4.358407e+002,2.727538e+001
4.377692e+002,2.684191e+001
4.396977e+002,2.676769e+001
4.416262e+002,2.743971e+001
4.435547e+002,2.846513e+001
4.454832e+002,2.917360e+001
4.474117e+002,2.929445e+001
4.493401e+002,2.978321e+001
4.512686e+002,3.030218e+001
4.531971e+002,3.029909e+001
4.551256e+002,3.054829e+001
4.570541e+002,3.057167e+001
4.589826e+002,2.978826e+001
4.609111e+002,2.842606e+001
4.628396e+002,2.706201e+001
4.647681e+002,2.700817e+001
4.666966e+002,2.785509e+001
4.686251e+002,2.871872e+001
4.705536e+002,2.933365e+001
4.724821e+002,3.064389e+001
4.744106e+002,3.177113e+001
4.763391e+002,3.337528e+001
4.782676e+002,3.507220e+001
4.801961e+002,3.649897e+001
4.821246e+002,3.768144e+001
4.840531e+002,3.873180e+001
4.859816e+002,3.946227e+001
4.879101e+002,3.987077e+001
4.898386e+002,3.986192e+001
4.917671e+002,3.954251e+001
4.936956e+002,3.981283e+001
4.956241e+002,4.089235e+001
4.975526e+002,4.221730e+001
4.994811e+002,4.355295e+001
5.014096e+002,4.452737e+001
5.033381e+002,4.615350e+001
5.052666e+002,4.812600e+001
5.071951e+002,5.064071e+001
5.091236e+002,5.342993e+001
5.110521e+002,5.622861e+001
5.129806e+002,5.883793e+001
5.149091e+002,6.122166e+001
5.168376e+002,6.368976e+001
5.187661e+002,6.653729e+001
5.206946e+002,6.869142e+001
5.226231e+002,7.079687e+001
5.245516e+002,7.297397e+001
5.264801e+002,7.516088e+001
5.284086e+002,7.675533e+001
5.303371e+002,7.811510e+001
5.322656e+002,7.946626e+001
5.341941e+002,8.059654e+001
5.361226e+002,8.133628e+001
5.380511e+002,8.221447e+001
5.399796e+002,8.330148e+001
5.419081e+002,8.398729e+001
5.438365e+002,8.407316e+001
5.457651e+002,8.453260e+001
5.476936e+002,8.506863e+001
5.496221e+002,8.503094e+001
5.515506e+002,8.465702e+001
5.534791e+002,8.457246e+001
5.554076e+002,8.449034e+001
5.573361e+002,8.410700e+001
5.592646e+002,8.370384e+001
5.611931e+002,8.348907e+001
5.631216e+002,8.361324e+001
5.650500e+002,8.364980e+001
5.669786e+002,8.346283e+001
5.689070e+002,8.364944e+001
5.708356e+002,8.394595e+001
5.727640e+002,8.380300e+001
5.746926e+002,8.368793e+001
5.766210e+002,8.373485e+001
5.785496e+002,8.384711e+001
5.804780e+002,8.377137e+001
5.824066e+002,8.377740e+001
5.843350e+002,8.410777e+001
5.862635e+002,8.447788e+001
5.881920e+002,8.455442e+001
5.901205e+002,8.468185e+001
5.920490e+002,8.497785e+001
5.939775e+002,8.500464e+001
5.959060e+002,8.473067e+001
5.978345e+002,8.466474e+001
5.997631e+002,8.470273e+001
6.016915e+002,8.459348e+001
6.036201e+002,8.441000e+001
6.055485e+002,8.436312e+001
6.074771e+002,8.444425e+001
6.094055e+002,8.423868e+001
6.113340e+002,8.385509e+001
6.132625e+002,8.346248e+001
6.151910e+002,8.312328e+001
6.171195e+002,8.256790e+001
6.190480e+002,8.211786e+001
6.209765e+002,8.184985e+001
6.229050e+002,8.137910e+001
6.248335e+002,8.058971e+001
6.267620e+002,7.946075e+001
6.286905e+002,7.857047e+001
6.306190e+002,7.758733e+001
6.325475e+002,7.617331e+001
6.344760e+002,7.454194e+001
6.364045e+002,7.290211e+001
6.383330e+002,7.085271e+001
6.402615e+002,6.840128e+001
6.421900e+002,6.560823e+001
6.441185e+002,6.300868e+001
6.460470e+002,6.050779e+001
6.479755e+002,5.856647e+001
6.499040e+002,5.766466e+001
6.518325e+002,5.784255e+001
6.537610e+002,5.831975e+001
6.556895e+002,5.851735e+001
6.576180e+002,5.825355e+001
6.595465e+002,5.770292e+001
6.614750e+002,5.661710e+001
6.634035e+002,5.511785e+001
6.653320e+002,5.336187e+001
6.672605e+002,4.993950e+001
6.691890e+002,4.532518e+001
6.711175e+002,4.449396e+001
6.730460e+002,4.229342e+001
6.749745e+002,3.990832e+001
6.769030e+002,3.827166e+001
6.788315e+002,3.787642e+001
6.807599e+002,3.816219e+001
6.826885e+002,3.879752e+001
6.846169e+002,3.916692e+001
6.865455e+002,3.925915e+001
6.884739e+002,3.899317e+001
6.904025e+002,3.873676e+001
6.923309e+002,3.872896e+001
6.942595e+002,3.929142e+001
6.961880e+002,4.030547e+001
6.981165e+002,4.187583e+001
7.000450e+002,4.376316e+001
7.019734e+002,4.581732e+001
7.039020e+002,4.768789e+001
7.058304e+002,4.933573e+001
7.077590e+002,5.068230e+001
7.096874e+002,5.150662e+001
7.116160e+002,5.174573e+001
7.135444e+002,5.168426e+001
7.154730e+002,5.159897e+001
7.174014e+002,5.186225e+001
7.193300e+002,5.249989e+001
7.212584e+002,5.406850e+001
7.231870e+002,5.610822e+001
7.251154e+002,5.787514e+001
7.270439e+002,5.944884e+001
7.289724e+002,6.088391e+001
7.309009e+002,6.227567e+001
7.328294e+002,6.342252e+001
7.347579e+002,6.446024e+001
7.366864e+002,6.557639e+001
7.386149e+002,6.672517e+001
7.405434e+002,6.766229e+001
7.424719e+002,6.855600e+001
7.444004e+002,6.959411e+001
7.463289e+002,7.062360e+001
7.482574e+002,7.147717e+001
7.501859e+002,7.232408e+001
7.521144e+002,7.338359e+001
7.540429e+002,7.447649e+001
7.559714e+002,7.533205e+001
7.578999e+002,7.622820e+001
7.598284e+002,7.732619e+001
7.617569e+002,7.847298e+001
7.636854e+002,7.941931e+001
7.656139e+002,8.043977e+001
7.675424e+002,8.173056e+001
7.694709e+002,8.296069e+001
7.713994e+002,8.402148e+001
7.733279e+002,8.517900e+001
7.752564e+002,8.657858e+001
7.771849e+002,8.799326e+001
7.791134e+002,8.909582e+001
7.810419e+002,9.036095e+001
7.829704e+002,9.189063e+001
7.848989e+002,9.341113e+001
7.868274e+002,9.452080e+001
7.887559e+002,9.560294e+001
7.906844e+002,9.686980e+001
7.926129e+002,9.793752e+001
7.945414e+002,9.857400e+001
7.964699e+002,9.923177e+001
7.983984e+002,9.981765e+001
8.003269e+002,1.000000e+002
8.022554e+002,9.970027e+001
8.041839e+002,9.943705e+001
8.061124e+002,9.902136e+001
8.080409e+002,9.825497e+001
8.099694e+002,9.712173e+001
8.118979e+002,9.608704e+001
8.138264e+002,9.508033e+001
8.157549e+002,9.373814e+001
8.176833e+002,9.216773e+001
8.196119e+002,9.084615e+001
8.215403e+002,8.950961e+001
8.234689e+002,8.789706e+001
8.253973e+002,8.617592e+001
8.273259e+002,8.474831e+001
8.292543e+002,8.334008e+001
8.311829e+002,8.168010e+001
8.331113e+002,8.003443e+001
8.350399e+002,7.870029e+001
8.369683e+002,7.734216e+001
8.388969e+002,7.571260e+001
8.408253e+002,7.414339e+001
8.427538e+002,7.285920e+001
8.446824e+002,7.151367e+001
8.466108e+002,6.997174e+001
8.485394e+002,6.855322e+001
8.504678e+002,6.735463e+001
8.523964e+002,6.605729e+001
8.543248e+002,6.460237e+001
8.562534e+002,6.321730e+001
8.581818e+002,6.199249e+001
8.601104e+002,6.068477e+001
8.620388e+002,5.930492e+001
8.639673e+002,5.797719e+001
8.658958e+002,5.676532e+001
8.678243e+002,5.553780e+001
8.697528e+002,5.428070e+001
8.716813e+002,5.304005e+001
8.736098e+002,5.184112e+001
8.755383e+002,5.059355e+001
8.774668e+002,4.931822e+001
8.793953e+002,4.803486e+001
8.813238e+002,4.674872e+001
8.832523e+002,4.546587e+001
8.851808e+002,4.419963e+001
8.871093e+002,4.293324e+001
8.890378e+002,4.165591e+001
8.909663e+002,4.041283e+001
8.928948e+002,3.915609e+001
8.948233e+002,3.796493e+001
8.967518e+002,3.681293e+001
8.986803e+002,3.567990e+001
9.006088e+002,3.452043e+001
9.025373e+002,3.336090e+001
9.044658e+002,3.225861e+001
9.063943e+002,3.117404e+001
9.083228e+002,3.005815e+001
9.102513e+002,2.902505e+001
9.121798e+002,2.801181e+001
9.141083e+002,2.701535e+001
9.160368e+002,2.600126e+001
9.179653e+002,2.503058e+001
9.198938e+002,2.404780e+001
9.218223e+002,2.307928e+001
9.237508e+002,2.212724e+001
9.256793e+002,2.126334e+001
9.276078e+002,2.034116e+001
9.295363e+002,1.944394e+001
9.314648e+002,1.858463e+001
9.333932e+002,1.772682e+001
9.353218e+002,1.675291e+001
9.372502e+002,1.590660e+001
9.391788e+002,1.524588e+001
9.411072e+002,1.482142e+001
9.430358e+002,1.457188e+001
9.449643e+002,1.448008e+001
9.468928e+002,1.431251e+001
9.488213e+002,1.415284e+001
9.507498e+002,1.386967e+001
9.526783e+002,1.348666e+001
9.546068e+002,1.304700e+001
9.565353e+002,1.277113e+001
9.584637e+002,1.262462e+001
9.603923e+002,1.257409e+001
9.623207e+002,1.254694e+001
9.642493e+002,1.251336e+001
9.661777e+002,1.230071e+001
9.681063e+002,1.195844e+001
9.700347e+002,1.150120e+001
9.719633e+002,1.103403e+001
9.738917e+002,1.060360e+001
9.758203e+002,1.037854e+001
9.777487e+002,1.014363e+001
9.796772e+002,1.006295e+001
9.816057e+002,1.006860e+001
9.835342e+002,1.010339e+001
9.854627e+002,1.008600e+001
9.873912e+002,1.007597e+001
9.893197e+002,1.000744e+001
9.912482e+002,1.000000e+001
9.931768e+002,1.004919e+001
9.951052e+002,1.013317e+001
9.970338e+002,1.016556e+001
9.989622e+002,1.034882e+001
1.000891e+003,1.046542e+001
1.002819e+003,1.045402e+001
1.004748e+003,1.034069e+001
1.006676e+003,1.028491e+001
1.008605e+003,1.023038e+001
1.010533e+003,1.027737e+001
1.012462e+003,1.038523e+001
1.014390e+003,1.058187e+001
1.016319e+003,1.077001e+001
1.018247e+003,1.105208e+001
1.020176e+003,1.122794e+001
1.022104e+003,1.147838e+001
1.024033e+003,1.176218e+001
1.025961e+003,1.204643e+001
1.027890e+003,1.230675e+001
1.029818e+003,1.263028e+001
1.031747e+003,1.294427e+001
1.033675e+003,1.330164e+001
1.035604e+003,1.360420e+001
1.037532e+003,1.388829e+001
1.039461e+003,1.415289e+001
1.041389e+003,1.449349e+001
1.043318e+003,1.481649e+001
1.045246e+003,1.517999e+001
1.047175e+003,1.550274e+001
1.049103e+003,1.582123e+001
1.051032e+003,1.613952e+001
1.052960e+003,1.652036e+001
1.054889e+003,1.687678e+001
1.056817e+003,1.725652e+001
1.058746e+003,1.757387e+001
1.060674e+003,1.789733e+001
1.062603e+003,1.824134e+001
1.064531e+003,1.861603e+001
1.066460e+003,1.891020e+001
1.068388e+003,1.922808e+001
1.070317e+003,1.949802e+001
1.072245e+003,1.972111e+001
1.074174e+003,1.993283e+001
1.076102e+003,2.018260e+001
1.078031e+003,2.030524e+001
1.079959e+003,2.039595e+001
1.081888e+003,2.041110e+001
1.083816e+003,2.042249e+001
1.085745e+003,2.038983e+001
1.087673e+003,2.035932e+001
1.089602e+003,2.035767e+001
1.091530e+003,2.054652e+001
1.093459e+003,2.079487e+001
1.095387e+003,2.103982e+001
1.097316e+003,2.129255e+001
1.099244e+003,2.168810e+001
1.101173e+003,2.209463e+001
1.103101e+003,2.249966e+001
1.105030e+003,2.291929e+001
1.106958e+003,2.334925e+001
1.108887e+003,2.377172e+001
1.110815e+003,2.422342e+001
1.112744e+003,2.462739e+001
1.114672e+003,2.509373e+001
1.116601e+003,2.548656e+001
1.118529e+003,2.582051e+001
1.120458e+003,2.615727e+001
1.122386e+003,2.657061e+001
1.124315e+003,2.692529e+001
1.126243e+003,2.727820e+001
1.128172e+003,2.762006e+001
1.130100e+003,2.801130e+001
1.132029e+003,2.839075e+001
1.133957e+003,2.873040e+001
1.135886e+003,2.903902e+001
1.137814e+003,2.944670e+001
1.139743e+003,2.979457e+001
1.141671e+003,3.012836e+001
1.143600e+003,3.047865e+001
1.145528e+003,3.088903e+001
1.147457e+003,3.124363e+001
1.149385e+003,3.156162e+001
1.151314e+003,3.189164e+001
1.153242e+003,3.233991e+001
1.155171e+003,3.272957e+001
1.157099e+003,3.309389e+001
1.159028e+003,3.350145e+001
1.160956e+003,3.395984e+001
1.162885e+003,3.436361e+001
1.164813e+003,3.477517e+001
1.166742e+003,3.518334e+001
1.168670e+003,3.561380e+001
1.170599e+003,3.604922e+001
1.172527e+003,3.648337e+001
1.174456e+003,3.688013e+001
1.176384e+003,3.730384e+001
1.178313e+003,3.766808e+001
1.180241e+003,3.805789e+001
1.182170e+003,3.850742e+001
1.184098e+003,3.896341e+001
1.186027e+003,3.934208e+001
1.187955e+003,3.968786e+001
1.189884e+003,4.007168e+001
1.191812e+003,4.049471e+001
1.193741e+003,4.085561e+001
1.195669e+003,4.118036e+001
1.197598e+003,4.148216e+001
1.199526e+003,4.183155e+001
1.201455e+003,4.215452e+001
1.203383e+003,4.245677e+001
1.205312e+003,4.279041e+001
1.207240e+003,4.314245e+001
1.209169e+003,4.344667e+001
1.211097e+003,4.369659e+001
1.213026e+003,4.398640e+001
1.214954e+003,4.431041e+001
1.216883e+003,4.454488e+001
1.218811e+003,4.477668e+001
1.220740e+003,4.507311e+001
1.222668e+003,4.537982e+001
1.224597e+003,4.557242e+001
1.226525e+003,4.573365e+001
1.228453e+003,4.596049e+001
1.230382e+003,4.626384e+001
1.232311e+003,4.649146e+001
1.234239e+003,4.667822e+001
1.236167e+003,4.692950e+001
1.238096e+003,4.723188e+001
1.240025e+003,4.743166e+001
1.241953e+003,4.761008e+001
1.243882e+003,4.782173e+001
1.245810e+003,4.806001e+001
1.247739e+003,4.823684e+001
1.249667e+003,4.838775e+001
1.251596e+003,4.860510e+001
1.253524e+003,4.884518e+001
1.255453e+003,4.901145e+001
1.257381e+003,4.918366e+001
1.259310e+003,4.941532e+001
1.261238e+003,4.962098e+001
1.263167e+003,4.976711e+001
1.265095e+003,4.989721e+001
1.267024e+003,5.008333e+001
1.268952e+003,5.027771e+001
1.270880e+003,5.036535e+001
1.272809e+003,5.046954e+001
1.274738e+003,5.065313e+001
1.276666e+003,5.086600e+001
1.278594e+003,5.097837e+001
1.280523e+003,5.109007e+001
1.282452e+003,5.128136e+001
1.284380e+003,5.142492e+001
1.286308e+003,5.146989e+001
1.288237e+003,5.154764e+001
1.290166e+003,5.170982e+001
1.292094e+003,5.186775e+001
1.294022e+003,5.195017e+001
1.295951e+003,5.205823e+001
1.297880e+003,5.220303e+001
1.299808e+003,5.229638e+001
1.301736e+003,5.235163e+001
1.303665e+003,5.243943e+001
1.305594e+003,5.256619e+001
1.307522e+003,5.267990e+001
1.309450e+003,5.273994e+001
1.311379e+003,5.281359e+001
1.313307e+003,5.291431e+001
1.315236e+003,5.298413e+001
1.317164e+003,5.299632e+001
1.319093e+003,5.306590e+001
1.321021e+003,5.321208e+001
1.322950e+003,5.333600e+001
1.324878e+003,5.337188e+001
1.326807e+003,5.343429e+001
1.328735e+003,5.357327e+001
1.330664e+003,5.367358e+001
1.332592e+003,5.368465e+001
1.334521e+003,5.375743e+001
1.336449e+003,5.383791e+001
1.338378e+003,5.385969e+001
1.340307e+003,5.389273e+001
1.342235e+003,5.404957e+001
1.344163e+003,5.419120e+001
1.346092e+003,5.424066e+001
1.348021e+003,5.427691e+001
1.349949e+003,5.434939e+001
1.351877e+003,5.442561e+001
1.353806e+003,5.446940e+001
1.355734e+003,5.451147e+001
1.357663e+003,5.459830e+001
1.359591e+003,5.468842e+001
1.361520e+003,5.470499e+001
1.363448e+003,5.472060e+001
1.365377e+003,5.483692e+001
1.367305e+003,5.491191e+001
1.369234e+003,5.491944e+001
1.371162e+003,5.493811e+001
1.373091e+003,5.496530e+001
1.375019e+003,5.499369e+001
1.376948e+003,5.508685e+001
1.378876e+003,5.513765e+001
1.380805e+003,5.518285e+001
1.382733e+003,5.524869e+001
1.384662e+003,5.530311e+001
1.386590e+003,5.531905e+001
1.388519e+003,5.543283e+001
1.390447e+003,5.556226e+001
1.392376e+003,5.559693e+001
1.394304e+003,5.556130e+001
1.396233e+003,5.561858e+001
1.398161e+003,5.570816e+001
1.400090e+003,5.569432e+001
1.402018e+003,5.575617e+001
1.403947e+003,5.582643e+001
1.405875e+003,5.587753e+001
1.407804e+003,5.590030e+001
1.409732e+003,5.591431e+001
1.411661e+003,5.596884e+001
1.413589e+003,5.600911e+001
1.415518e+003,5.599843e+001
1.417446e+003,5.597010e+001
1.419375e+003,5.605234e+001
1.421303e+003,5.614265e+001
1.423232e+003,5.614552e+001
1.425160e+003,5.618741e+001
1.427089e+003,5.628102e+001
1.429017e+003,5.628201e+001
1.430946e+003,5.630320e+001
1.432874e+003,5.637138e+001
1.434803e+003,5.644137e+001
1.436731e+003,5.645190e+001
1.438660e+003,5.650784e+001
1.440588e+003,5.661081e+001
1.442517e+003,5.669918e+001
1.444445e+003,5.674076e+001
1.446374e+003,5.672358e+001
1.448302e+003,5.672367e+001
1.450231e+003,5.678862e+001
1.452159e+003,5.679994e+001
1.454088e+003,5.678037e+001
1.456016e+003,5.673851e+001
1.457945e+003,5.669975e+001
1.459873e+003,5.683300e+001
1.461802e+003,5.690976e+001
1.463730e+003,5.696045e+001
1.465659e+003,5.703897e+001
1.467587e+003,5.709887e+001
1.469516e+003,5.712764e+001
1.471444e+003,5.709265e+001
1.473373e+003,5.705012e+001
1.475301e+003,5.716194e+001
1.477230e+003,5.723634e+001
1.479158e+003,5.733236e+001
1.481087e+003,5.736403e+001
1.483015e+003,5.736314e+001
1.484944e+003,5.738857e+001
1.486872e+003,5.741291e+001
1.488801e+003,5.739777e+001
1.490729e+003,5.731957e+001
1.492658e+003,5.744950e+001
1.494586e+003,5.754266e+001
1.496515e+003,5.753884e+001
1.498443e+003,5.749790e+001
1.500372e+003,5.753938e+001
1.502300e+003,5.761005e+001
1.504229e+003,5.763538e+001
1.506157e+003,5.753147e+001
1.508086e+003,5.747472e+001
1.510014e+003,5.761087e+001
1.511943e+003,5.767920e+001
1.513871e+003,5.770585e+001
1.515800e+003,5.768863e+001
1.517728e+003,5.767621e+001
1.519657e+003,5.774458e+001
1.521585e+003,5.762098e+001
1.523514e+003,5.761113e+001
1.525442e+003,5.776243e+001
1.527371e+003,5.785771e+001
1.529299e+003,5.787572e+001
1.531228e+003,5.792595e+001
1.533156e+003,5.792122e+001
1.535085e+003,5.798079e+001
1.537013e+003,5.804926e+001
1.538942e+003,5.808405e+001
1.540870e+003,5.787971e+001
1.542799e+003,5.796136e+001
1.544727e+003,5.804760e+001
1.546656e+003,5.815952e+001
1.548584e+003,5.818290e+001
1.550513e+003,5.812485e+001
1.552441e+003,5.812777e+001
1.554370e+003,5.810838e+001
1.556298e+003,5.813610e+001
1.558227e+003,5.816668e+001
1.560155e+003,5.805495e+001
1.562084e+003,5.817073e+001
1.564012e+003,5.824001e+001
1.565941e+003,5.822898e+001
1.567869e+003,5.820876e+001
1.569798e+003,5.826747e+001
1.571726e+003,5.836170e+001
1.573655e+003,5.825189e+001
1.575583e+003,5.806588e+001
1.577512e+003,5.812264e+001
1.579440e+003,5.828477e+001
1.581369e+003,5.831633e+001
1.583297e+003,5.829069e+001
1.585226e+003,5.827903e+001
1.587154e+003,5.825586e+001
1.589083e+003,5.819804e+001
1.591011e+003,5.815141e+001
1.592940e+003,5.811672e+001
1.594868e+003,5.808962e+001
1.596797e+003,5.804638e+001
1.598725e+003,5.800393e+001
1.600654e+003,5.794572e+001
1.602582e+003,5.789291e+001
1.604511e+003,5.785274e+001
1.606439e+003,5.779305e+001
1.608368e+003,5.773190e+001
1.610296e+003,5.770332e+001
1.612225e+003,5.763835e+001
1.614153e+003,5.753775e+001
1.616082e+003,5.734852e+001
1.618010e+003,5.728854e+001
1.619939e+003,5.731424e+001
1.621867e+003,5.723996e+001
1.623796e+003,5.715237e+001
1.625724e+003,5.715654e+001
1.627653e+003,5.707719e+001
1.629581e+003,5.707377e+001
1.631510e+003,5.707029e+001
1.633438e+003,5.703577e+001
1.635367e+003,5.687993e+001
1.637295e+003,5.678756e+001
1.639224e+003,5.691607e+001
1.641152e+003,5.700856e+001
1.643081e+003,5.707430e+001
1.645009e+003,5.701963e+001
1.646938e+003,5.688873e+001
1.648866e+003,5.704688e+001
1.650795e+003,5.712457e+001
1.652723e+003,5.705915e+001
1.654652e+003,5.714152e+001
1.656580e+003,5.731455e+001
1.658509e+003,5.738386e+001
1.660437e+003,5.737502e+001
1.662366e+003,5.739350e+001
1.664294e+003,5.751216e+001
1.666223e+003,5.761457e+001
1.668151e+003,5.756946e+001
1.670080e+003,5.744723e+001
1.672008e+003,5.758958e+001
1.673937e+003,5.768298e+001
1.675865e+003,5.773405e+001
1.677794e+003,5.781501e+001
1.679722e+003,5.784807e+001
1.681651e+003,5.787931e+001
1.683579e+003,5.792685e+001
1.685508e+003,5.793284e+001
1.687436e+003,5.803026e+001
1.689365e+003,5.810848e+001
1.691293e+003,5.816401e+001
1.693222e+003,5.818253e+001
1.695150e+003,5.811565e+001
1.697079e+003,5.804033e+001
1.699007e+003,5.817081e+001
1.700936e+003,5.831246e+001
1.702864e+003,5.830909e+001
1.704793e+003,5.829222e+001
1.706721e+003,5.832354e+001
1.708650e+003,5.843740e+001
1.710578e+003,5.849580e+001
1.712507e+003,5.849202e+001
1.714435e+003,5.841330e+001
1.716364e+003,5.839248e+001
1.718292e+003,5.854163e+001
1.720221e+003,5.865571e+001
1.722149e+003,5.871945e+001
1.724078e+003,5.877040e+001
1.726006e+003,5.878515e+001
1.727935e+003,5.877451e+001
1.729863e+003,5.871814e+001
1.731792e+003,5.870195e+001
1.733720e+003,5.870747e+001
1.735649e+003,5.879484e+001
1.737577e+003,5.881152e+001
1.739506e+003,5.880908e+001
1.741434e+003,5.887851e+001
1.743363e+003,5.889141e+001
1.745291e+003,5.889504e+001
1.747220e+003,5.887765e+001
1.749148e+003,5.890657e+001
1.751077e+003,5.898756e+001
1.753005e+003,5.905698e+001
1.754934e+003,5.910788e+001
1.756862e+003,5.910551e+001
1.758791e+003,5.912906e+001
1.760719e+003,5.911636e+001
1.762648e+003,5.915108e+001
1.764576e+003,5.922294e+001
1.766505e+003,5.924226e+001
1.768433e+003,5.921751e+001
1.770362e+003,5.918942e+001
1.772290e+003,5.913209e+001
1.774219e+003,5.916336e+001
1.776147e+003,5.921906e+001
1.778076e+003,5.926823e+001
1.780004e+003,5.927565e+001
1.781933e+003,5.932620e+001
1.783861e+003,5.938670e+001
1.785790e+003,5.945020e+001
1.787718e+003,5.942868e+001
1.789647e+003,5.935566e+001
1.791575e+003,5.937572e+001
1.793504e+003,5.939970e+001
1.795432e+003,5.938280e+001
1.797361e+003,5.942534e+001
1.799289e+003,5.945160e+001
1.801218e+003,5.947663e+001
1.803146e+003,5.951989e+001
1.805075e+003,5.952470e+001
1.807003e+003,5.952240e+001
1.808932e+003,5.953587e+001
1.810860e+003,5.954140e+001
1.812789e+003,5.959211e+001
1.814717e+003,5.959793e+001
1.816646e+003,5.959917e+001
1.818574e+003,5.961893e+001
1.820503e+003,5.965916e+001
1.822431e+003,5.967083e+001
1.824360e+003,5.965916e+001
1.826288e+003,5.966402e+001
1.828217e+003,5.961811e+001
1.830145e+003,5.959077e+001
1.832074e+003,5.967781e+001
1.834002e+003,5.970054e+001
1.835931e+003,5.969602e+001
1.837859e+003,5.969253e+001
1.839788e+003,5.973179e+001
1.841716e+003,5.974046e+001
1.843645e+003,5.972540e+001
1.845573e+003,5.972684e+001
1.847502e+003,5.974870e+001
1.849430e+003,5.979139e+001
1.851359e+003,5.979845e+001
1.853287e+003,5.978836e+001
1.855216e+003,5.979523e+001
1.857144e+003,5.979869e+001
1.859073e+003,5.978717e+001
1.861001e+003,5.978588e+001
1.862930e+003,5.978782e+001
1.864858e+003,5.976954e+001
1.866786e+003,5.972313e+001
1.868715e+003,5.971933e+001
1.870644e+003,5.977377e+001
1.872572e+003,5.980141e+001
1.874500e+003,5.981504e+001
1.876429e+003,5.978776e+001
1.878358e+003,5.976795e+001
1.880286e+003,5.976261e+001
1.882215e+003,5.973236e+001
1.884143e+003,5.970019e+001
1.886072e+003,5.970938e+001
1.888000e+003,5.972382e+001
1.889929e+003,5.969899e+001
1.891857e+003,5.966793e+001
1.893786e+003,5.969693e+001
1.895714e+003,5.972127e+001
1.897643e+003,5.970881e+001
1.899571e+003,5.966563e+001
1.901500e+003,5.966346e+001
1.903428e+003,5.965506e+001
1.905357e+003,5.962795e+001
1.907285e+003,5.961968e+001
1.909214e+003,5.960925e+001
1.911142e+003,5.961198e+001
1.913071e+003,5.960010e+001
1.914999e+003,5.957427e+001
1.916927e+003,5.956929e+001
1.918856e+003,5.958070e+001
1.920785e+003,5.955242e+001
1.922713e+003,5.952058e+001
1.924641e+003,5.957419e+001
1.926570e+003,5.958926e+001
1.928499e+003,5.953572e+001
1.930427e+003,5.949078e+001
1.932355e+003,5.948710e+001
1.934284e+003,5.948139e+001
1.936213e+003,5.947997e+001
1.938141e+003,5.947096e+001
1.940069e+003,5.946112e+001
1.941998e+003,5.941945e+001
1.943927e+003,5.942011e+001
1.945855e+003,5.941068e+001
1.947783e+003,5.939289e+001
1.949712e+003,5.938659e+001
1.951641e+003,5.935908e+001
1.953569e+003,5.934397e+001
1.955497e+003,5.935128e+001
1.957426e+003,5.935692e+001
1.959354e+003,5.936533e+001
1.961283e+003,5.935881e+001
1.963211e+003,5.932477e+001
1.965140e+003,5.930458e+001
1.967068e+003,5.929762e+001
1.968997e+003,5.930306e+001
1.970925e+003,5.933514e+001
1.972854e+003,5.933812e+001
1.974782e+003,5.930135e+001
1.976711e+003,5.928615e+001
1.978639e+003,5.932974e+001
1.980568e+003,5.931919e+001
1.982496e+003,5.928772e+001
1.984425e+003,5.929635e+001
1.986354e+003,5.930594e+001
1.988282e+003,5.927193e+001
1.990210e+003,5.924566e+001
1.992139e+003,5.923967e+001
1.994068e+003,5.929536e+001
1.995996e+003,5.927857e+001
1.997924e+003,5.924089e+001
1.999853e+003,5.922934e+001
2.001781e+003,5.921758e+001
2.003710e+003,5.920721e+001
2.005638e+003,5.918608e+001
2.007567e+003,5.919030e+001
2.009495e+003,5.920169e+001
2.011424e+003,5.917327e+001
2.013352e+003,5.914097e+001
2.015281e+003,5.913248e+001
2.017209e+003,5.913041e+001
2.019138e+003,5.911186e+001
2.021066e+003,5.910782e+001
2.022995e+003,5.912143e+001
2.024923e+003,5.911535e+001
2.026852e+003,5.905907e+001
2.028780e+003,5.904671e+001
2.030709e+003,5.906289e+001
2.032637e+003,5.903686e+001
2.034566e+003,5.901074e+001
2.036494e+003,5.900304e+001
2.038423e+003,5.897551e+001
2.040351e+003,5.894152e+001
2.042280e+003,5.891975e+001
2.044208e+003,5.890273e+001
2.046137e+003,5.892081e+001
2.048065e+003,5.889727e+001
2.049994e+003,5.885155e+001
2.051922e+003,5.885875e+001
2.053851e+003,5.886173e+001
2.055779e+003,5.882623e+001
2.057708e+003,5.881178e+001
2.059636e+003,5.882468e+001
2.061565e+003,5.883806e+001
2.063493e+003,5.882245e+001
2.065422e+003,5.877885e+001
2.067350e+003,5.877518e+001
2.069279e+003,5.876527e+001
2.071207e+003,5.872695e+001
2.073136e+003,5.870020e+001
2.075064e+003,5.869966e+001
2.076993e+003,5.870364e+001
2.078921e+003,5.869672e+001
2.080850e+003,5.867001e+001
2.082778e+003,5.866730e+001
2.084707e+003,5.863457e+001
2.086635e+003,5.859822e+001
2.088564e+003,5.862595e+001
2.090492e+003,5.864288e+001
2.092421e+003,5.864723e+001
2.094349e+003,5.859010e+001
2.096278e+003,5.857981e+001
2.098206e+003,5.863649e+001
2.100135e+003,5.862478e+001
2.102063e+003,5.858828e+001
2.103992e+003,5.858025e+001
2.105920e+003,5.859037e+001
2.107849e+003,5.857109e+001
2.109777e+003,5.854137e+001
2.111706e+003,5.853311e+001
2.113634e+003,5.854240e+001
2.115563e+003,5.853404e+001
2.117491e+003,5.852559e+001
2.119420e+003,5.853655e+001
2.121348e+003,5.852748e+001
2.123277e+003,5.851447e+001
2.125205e+003,5.850924e+001
2.127134e+003,5.848059e+001
2.129062e+003,5.847057e+001
2.130991e+003,5.845250e+001
2.132919e+003,5.845607e+001
2.134848e+003,5.846648e+001
2.136776e+003,5.846158e+001
2.138705e+003,5.843517e+001
2.140633e+003,5.843071e+001
2.142562e+003,5.842459e+001
2.144490e+003,5.843767e+001
2.146419e+003,5.840408e+001
2.148347e+003,5.837705e+001
2.150276e+003,5.839666e+001
2.152204e+003,5.840179e+001
2.154133e+003,5.837016e+001
2.156061e+003,5.835923e+001
2.157990e+003,5.835494e+001
2.159918e+003,5.837334e+001
2.161847e+003,5.838552e+001
2.163775e+003,5.835331e+001
2.165704e+003,5.834231e+001
2.167632e+003,5.832675e+001
2.169561e+003,5.828255e+001
2.171489e+003,5.829547e+001
2.173418e+003,5.830471e+001
2.175346e+003,5.828465e+001
2.177275e+003,5.828381e+001
2.179203e+003,5.829548e+001
2.181132e+003,5.827552e+001
2.183060e+003,5.825462e+001
2.184989e+003,5.826177e+001
2.186917e+003,5.826629e+001
2.188846e+003,5.827983e+001
2.190774e+003,5.829032e+001
2.192703e+003,5.829589e+001
2.194631e+003,5.829553e+001
2.196560e+003,5.827454e+001
2.198488e+003,5.822889e+001
2.200417e+003,5.821463e+001
2.202345e+003,5.823590e+001
2.204274e+003,5.824575e+001
2.206202e+003,5.823181e+001
2.208131e+003,5.824618e+001
2.210059e+003,5.825930e+001
2.211988e+003,5.823368e+001
2.213916e+003,5.822153e+001
2.215845e+003,5.824993e+001
2.217773e+003,5.824786e+001
2.219702e+003,5.821272e+001
2.221630e+003,5.818288e+001
2.223559e+003,5.817429e+001
2.225487e+003,5.816646e+001
2.227416e+003,5.818826e+001
2.229344e+003,5.821773e+001
2.231273e+003,5.820660e+001
2.233201e+003,5.815828e+001
2.235130e+003,5.811586e+001
2.237058e+003,5.810563e+001
2.238987e+003,5.810768e+001
2.240915e+003,5.809745e+001
2.242844e+003,5.807493e+001
2.244772e+003,5.804359e+001
2.246701e+003,5.802819e+001
2.248629e+003,5.802716e+001
2.250558e+003,5.799732e+001
2.252486e+003,5.798583e+001
2.254415e+003,5.794217e+001
2.256343e+003,5.788475e+001
2.258272e+003,5.781712e+001
2.260200e+003,5.775841e+001
2.262129e+003,5.774042e+001
2.264057e+003,5.771624e+001
2.265986e+003,5.767848e+001
2.267914e+003,5.764148e+001
2.269843e+003,5.762181e+001
2.271771e+003,5.759921e+001
2.273700e+003,5.759918e+001
2.275628e+003,5.762766e+001
2.277557e+003,5.764408e+001
2.279485e+003,5.768188e+001
2.281414e+003,5.773949e+001
2.283342e+003,5.772451e+001
2.285271e+003,5.758199e+001
2.287199e+003,5.741387e+001
2.289128e+003,5.727228e+001
2.291056e+003,5.712222e+001
2.292985e+003,5.691183e+001
2.294913e+003,5.666751e+001
2.296842e+003,5.644201e+001
2.298770e+003,5.623960e+001
2.300699e+003,5.606293e+001
2.302627e+003,5.588945e+001
2.304556e+003,5.560326e+001
2.306484e+003,5.515070e+001
2.308413e+003,5.464164e+001
2.310341e+003,5.420949e+001
2.312270e+003,5.395238e+001
2.314198e+003,5.379263e+001
2.316127e+003,5.344031e+001
2.318055e+003,5.279863e+001
2.319984e+003,5.203141e+001
2.321912e+003,5.142778e+001
2.323841e+003,5.102845e+001
2.325769e+003,5.062908e+001
2.327698e+003,5.014859e+001
2.329626e+003,4.975505e+001
2.331555e+003,4.954719e+001
2.333483e+003,4.951295e+001
2.335412e+003,4.927841e+001
2.337340e+003,4.897729e+001
2.339269e+003,4.879980e+001
2.341197e+003,4.858271e+001
2.343126e+003,4.873730e+001
2.345054e+003,4.945049e+001
2.346983e+003,5.093848e+001
2.348911e+003,5.145588e+001
2.350840e+003,5.038692e+001
2.352768e+003,4.881461e+001
2.354697e+003,4.741736e+001
2.356625e+003,4.622815e+001
2.358554e+003,4.555059e+001
2.360482e+003,4.551814e+001
2.362411e+003,4.576636e+001
2.364339e+003,4.637975e+001
2.366268e+003,4.722746e+001
2.368196e+003,4.837317e+001
2.370125e+003,4.968062e+001
2.372053e+003,5.088446e+001
2.373982e+003,5.197905e+001
2.375910e+003,5.301385e+001
2.377839e+003,5.402766e+001
2.379767e+003,5.494764e+001
2.381696e+003,5.571952e+001
2.383624e+003,5.639821e+001
2.385553e+003,5.686327e+001
2.387481e+003,5.709190e+001
2.389410e+003,5.717112e+001
2.391338e+003,5.724558e+001
2.393267e+003,5.724120e+001
2.395195e+003,5.718349e+001
2.397124e+003,5.719552e+001
2.399052e+003,5.718532e+001
2.400981e+003,5.716204e+001
2.402909e+003,5.715250e+001
2.404838e+003,5.712112e+001
2.406766e+003,5.710089e+001
2.408695e+003,5.710574e+001
2.410623e+003,5.709907e+001
2.412552e+003,5.709790e+001
2.414480e+003,5.708834e+001
2.416409e+003,5.707150e+001
2.418337e+003,5.709078e+001
2.420266e+003,5.708377e+001
2.422194e+003,5.702885e+001
2.424123e+003,5.697233e+001
2.426051e+003,5.698538e+001
2.427980e+003,5.701798e+001
2.429908e+003,5.701226e+001
2.431837e+003,5.698977e+001
2.433765e+003,5.695250e+001
2.435694e+003,5.693465e+001
2.437622e+003,5.695599e+001
2.439551e+003,5.694217e+001
2.441479e+003,5.693392e+001
2.443408e+003,5.692751e+001
2.445336e+003,5.691611e+001
2.447265e+003,5.693818e+001
2.449193e+003,5.692927e+001
2.451122e+003,5.687754e+001
2.453050e+003,5.685309e+001
2.454979e+003,5.683531e+001
2.456907e+003,5.679369e+001
2.458836e+003,5.680268e+001
2.460764e+003,5.682056e+001
2.462693e+003,5.680939e+001
2.464621e+003,5.678493e+001
2.466550e+003,5.676192e+001
2.468478e+003,5.678351e+001
2.470406e+003,5.675806e+001
2.472335e+003,5.671869e+001
2.474264e+003,5.668896e+001
2.476192e+003,5.668373e+001
2.478121e+003,5.670160e+001
2.480049e+003,5.671001e+001
2.481978e+003,5.669165e+001
2.483906e+003,5.664548e+001
2.485834e+003,5.664354e+001
2.487763e+003,5.666901e+001
2.489692e+003,5.664688e+001
2.491620e+003,5.661962e+001
2.493549e+003,5.659046e+001
2.495477e+003,5.656765e+001
2.497406e+003,5.659855e+001
2.499334e+003,5.662164e+001
2.501262e+003,5.659828e+001
2.503191e+003,5.658521e+001
2.505120e+003,5.658963e+001
2.507048e+003,5.657746e+001
2.508977e+003,5.655643e+001
2.510905e+003,5.652346e+001
2.512833e+003,5.648576e+001
2.514762e+003,5.650282e+001
2.516690e+003,5.648569e+001
2.518619e+003,5.648809e+001
2.520548e+003,5.649940e+001
2.522476e+003,5.647317e+001
2.524405e+003,5.643113e+001
2.526333e+003,5.643366e+001
2.528261e+003,5.644580e+001
2.530190e+003,5.642972e+001
2.532119e+003,5.641566e+001
2.534047e+003,5.642706e+001
2.535976e+003,5.641088e+001
2.537904e+003,5.637710e+001
2.539833e+003,5.635917e+001
2.541761e+003,5.636204e+001
2.543689e+003,5.637275e+001
2.545618e+003,5.636616e+001
2.547547e+003,5.633710e+001
2.549475e+003,5.633865e+001
2.551404e+003,5.636922e+001
2.553332e+003,5.634984e+001
2.555260e+003,5.631655e+001
2.557189e+003,5.630848e+001
2.559117e+003,5.629761e+001
2.561046e+003,5.629268e+001
2.562975e+003,5.626408e+001
2.564903e+003,5.626217e+001
2.566832e+003,5.628352e+001
2.568760e+003,5.630373e+001
2.570688e+003,5.624181e+001
2.572617e+003,5.618432e+001
2.574545e+003,5.617735e+001
2.576474e+003,5.617528e+001
2.578403e+003,5.620095e+001
2.580331e+003,5.621314e+001
2.582260e+003,5.617099e+001
2.584188e+003,5.614320e+001
2.586116e+003,5.616107e+001
2.588045e+003,5.615037e+001
2.589973e+003,5.610586e+001
2.591902e+003,5.606843e+001
2.593831e+003,5.608073e+001
2.595759e+003,5.608404e+001
2.597688e+003,5.606645e+001
2.599616e+003,5.604036e+001
2.601544e+003,5.602987e+001
2.603473e+003,5.603540e+001
2.605401e+003,5.601621e+001
2.607330e+003,5.601151e+001
2.609259e+003,5.599459e+001
2.611187e+003,5.597316e+001
2.613115e+003,5.597321e+001
2.615044e+003,5.596222e+001
2.616972e+003,5.596603e+001
2.618901e+003,5.598455e+001
2.620830e+003,5.595181e+001
2.622758e+003,5.591468e+001
2.624687e+003,5.589704e+001
2.626615e+003,5.590828e+001
2.628543e+003,5.590566e+001
2.630472e+003,5.588519e+001
2.632400e+003,5.586525e+001
2.634329e+003,5.587386e+001
2.636258e+003,5.587358e+001
2.638186e+003,5.585377e+001
2.640115e+003,5.582949e+001
2.642043e+003,5.581096e+001
2.643971e+003,5.579759e+001
2.645900e+003,5.579887e+001
2.647828e+003,5.581471e+001
2.649757e+003,5.578968e+001
2.651686e+003,5.575237e+001
2.653614e+003,5.573983e+001
2.655542e+003,5.572065e+001
2.657471e+003,5.569883e+001
2.659399e+003,5.568101e+001
2.661328e+003,5.566016e+001
2.663256e+003,5.567396e+001
2.665185e+003,5.569186e+001
2.667114e+003,5.567377e+001
2.669042e+003,5.566644e+001
2.670970e+003,5.568278e+001
2.672899e+003,5.563712e+001
2.674827e+003,5.559444e+001
2.676756e+003,5.555389e+001
2.678684e+003,5.553906e+001
2.680613e+003,5.554963e+001
2.682542e+003,5.557436e+001
2.684470e+003,5.557415e+001
2.686398e+003,5.554247e+001
2.688327e+003,5.551809e+001
2.690255e+003,5.551392e+001
2.692184e+003,5.548541e+001
2.694112e+003,5.547902e+001
2.696041e+003,5.548599e+001
2.697969e+003,5.549785e+001
2.699898e+003,5.545821e+001
2.701826e+003,5.543462e+001
2.703755e+003,5.544727e+001
2.705683e+003,5.544577e+001
2.707612e+003,5.545169e+001
2.709540e+003,5.542163e+001
2.711469e+003,5.540792e+001
2.713397e+003,5.539982e+001
2.715326e+003,5.537979e+001
2.717254e+003,5.534910e+001
2.719183e+003,5.532395e+001
2.721111e+003,5.528826e+001
2.723040e+003,5.527282e+001
2.724969e+003,5.528767e+001
2.726897e+003,5.529668e+001
2.728825e+003,5.533065e+001
2.730754e+003,5.531411e+001
2.732682e+003,5.522503e+001
2.734611e+003,5.519784e+001
2.736539e+003,5.524035e+001
2.738468e+003,5.527126e+001
2.740396e+003,5.526622e+001
2.742325e+003,5.525582e+001
2.744253e+003,5.522392e+001
2.746182e+003,5.518970e+001
2.748110e+003,5.512973e+001
2.750039e+003,5.509425e+001
2.751967e+003,5.512417e+001
2.753896e+003,5.513099e+001
2.755824e+003,5.512345e+001
2.757753e+003,5.510291e+001
2.759681e+003,5.509003e+001
2.761610e+003,5.509091e+001
2.763538e+003,5.510382e+001
2.765467e+003,5.508945e+001
2.767395e+003,5.507022e+001
2.769324e+003,5.504276e+001
2.771252e+003,5.498450e+001
2.773181e+003,5.495592e+001
2.775109e+003,5.502129e+001
2.777038e+003,5.500320e+001
2.778966e+003,5.497406e+001
2.780895e+003,5.498643e+001
2.782823e+003,5.495235e+001
2.784752e+003,5.493766e+001
2.786680e+003,5.492630e+001
2.788609e+003,5.490228e+001
2.790537e+003,5.485672e+001
2.792466e+003,5.483167e+001
2.794394e+003,5.483968e+001
2.796323e+003,5.481927e+001
2.798251e+003,5.482915e+001
2.800180e+003,5.487313e+001
2.802108e+003,5.486758e+001
2.804037e+003,5.484406e+001
2.805965e+003,5.483865e+001
2.807894e+003,5.481871e+001
2.809822e+003,5.478053e+001
2.811751e+003,5.474864e+001
2.813679e+003,5.474139e+001
2.815608e+003,5.474541e+001
2.817536e+003,5.471523e+001
2.819465e+003,5.469056e+001
2.821393e+003,5.466262e+001
2.823322e+003,5.463604e+001
2.825250e+003,5.464294e+001
2.827179e+003,5.461264e+001
2.829107e+003,5.455725e+001
2.831036e+003,5.455894e+001
2.832964e+003,5.455355e+001
2.834893e+003,5.449422e+001
2.836821e+003,5.445001e+001
2.838750e+003,5.444537e+001
2.840678e+003,5.446355e+001
2.842607e+003,5.445568e+001
2.844535e+003,5.442661e+001
2.846464e+003,5.438041e+001
2.848392e+003,5.436663e+001
2.850321e+003,5.434661e+001
2.852249e+003,5.433628e+001
2.854178e+003,5.434211e+001
2.856106e+003,5.432208e+001
2.858035e+003,5.428672e+001
2.859963e+003,5.428620e+001
2.861892e+003,5.429244e+001
2.863820e+003,5.427966e+001
2.865749e+003,5.423042e+001
2.867677e+003,5.418427e+001
2.869606e+003,5.414314e+001
2.871534e+003,5.409784e+001
2.873463e+003,5.410819e+001
2.875391e+003,5.416440e+001
2.877320e+003,5.413639e+001
2.879248e+003,5.406326e+001
2.881177e+003,5.403504e+001
2.883105e+003,5.405684e+001
2.885034e+003,5.406960e+001
2.886962e+003,5.405171e+001
2.888891e+003,5.402537e+001
2.890819e+003,5.400330e+001
2.892748e+003,5.396379e+001
2.894676e+003,5.390222e+001
2.896605e+003,5.387910e+001
2.898533e+003,5.389221e+001
2.900462e+003,5.388197e+001
2.902390e+003,5.388615e+001
2.904319e+003,5.388324e+001
2.906247e+003,5.386716e+001
2.908176e+003,5.382069e+001
2.910104e+003,5.377615e+001
2.912033e+003,5.376511e+001
2.913961e+003,5.372639e+001
2.915890e+003,5.370318e+001
2.917818e+003,5.369997e+001
2.919747e+003,5.371518e+001
2.921675e+003,5.372425e+001
2.923604e+003,5.369688e+001
2.925532e+003,5.370804e+001
2.927461e+003,5.370338e+001
2.929389e+003,5.368383e+001
2.931318e+003,5.370432e+001
2.933246e+003,5.370056e+001
2.935175e+003,5.368398e+001
2.937103e+003,5.369780e+001
2.939032e+003,5.368929e+001
2.940960e+003,5.363028e+001
2.942889e+003,5.360884e+001
2.944817e+003,5.363315e+001
2.946746e+003,5.364232e+001
2.948674e+003,5.366904e+001
2.950603e+003,5.365971e+001
2.952531e+003,5.360018e+001
2.954460e+003,5.365524e+001
2.956388e+003,5.367969e+001
2.958317e+003,5.364340e+001
2.960245e+003,5.362675e+001
2.962174e+003,5.358062e+001
2.964102e+003,5.358322e+001
2.966031e+003,5.359323e+001
2.967959e+003,5.352662e+001
2.969888e+003,5.349166e+001
2.971816e+003,5.350717e+001
2.973745e+003,5.347484e+001
2.975673e+003,5.341694e+001
2.977602e+003,5.337053e+001
2.979530e+003,5.336092e+001
2.981459e+003,5.342312e+001
2.983387e+003,5.347342e+001
2.985316e+003,5.346524e+001
2.987244e+003,5.344442e+001
2.989173e+003,5.343119e+001
2.991101e+003,5.344163e+001
2.993030e+003,5.342547e+001
2.994958e+003,5.341265e+001
2.996887e+003,5.346276e+001
2.998815e+003,5.346859e+001
3.000744e+003,5.342407e+001
3.002672e+003,5.339116e+001
3.004601e+003,5.339667e+001
3.006529e+003,5.338717e+001
3.008458e+003,5.338175e+001
3.010386e+003,5.334615e+001
3.012315e+003,5.335653e+001
3.014243e+003,5.337349e+001
3.016172e+003,5.332529e+001
3.018100e+003,5.327324e+001
3.020029e+003,5.330585e+001
3.021957e+003,5.331545e+001
3.023886e+003,5.329245e+001
3.025814e+003,5.328948e+001
3.027743e+003,5.326361e+001
3.029671e+003,5.323540e+001
3.031600e+003,5.322409e+001
3.033528e+003,5.325491e+001
3.035457e+003,5.327603e+001
3.037385e+003,5.327145e+001
3.039314e+003,5.318334e+001
3.041242e+003,5.308289e+001
3.043171e+003,5.310547e+001
3.045099e+003,5.313243e+001
3.047028e+003,5.313926e+001
3.048956e+003,5.312785e+001
3.050885e+003,5.310046e+001
3.052813e+003,5.308287e+001
3.054742e+003,5.311471e+001
3.056670e+003,5.313688e+001
3.058599e+003,5.310785e+001
3.060527e+003,5.306940e+001
3.062456e+003,5.303362e+001
3.064384e+003,5.301254e+001
3.066313e+003,5.298674e+001
3.068241e+003,5.302037e+001
3.070170e+003,5.303429e+001
3.072098e+003,5.297111e+001
3.074027e+003,5.290921e+001
3.075955e+003,5.286553e+001
3.077884e+003,5.282763e+001
3.079812e+003,5.281920e+001
3.081741e+003,5.276876e+001
3.083669e+003,5.274093e+001
3.085598e+003,5.274311e+001
3.087526e+003,5.273801e+001
3.089455e+003,5.273786e+001
3.091383e+003,5.271456e+001
3.093312e+003,5.268845e+001
3.095240e+003,5.267944e+001
3.097169e+003,5.269014e+001
3.099097e+003,5.268670e+001
3.101026e+003,5.264233e+001
3.102954e+003,5.265099e+001
3.104883e+003,5.262953e+001
3.106811e+003,5.257349e+001
3.108740e+003,5.252777e+001
3.110668e+003,5.252094e+001
3.112597e+003,5.249370e+001
3.114525e+003,5.244098e+001
3.116454e+003,5.241394e+001
3.118382e+003,5.240087e+001
3.120311e+003,5.237754e+001
3.122239e+003,5.238076e+001
3.124167e+003,5.241133e+001
3.126096e+003,5.241532e+001
3.128025e+003,5.237950e+001
3.129953e+003,5.232673e+001
3.131882e+003,5.225975e+001
3.133810e+003,5.224757e+001
3.135739e+003,5.224326e+001
3.137667e+003,5.222218e+001
3.139595e+003,5.220065e+001
3.141524e+003,5.216354e+001
3.143453e+003,5.216502e+001
3.145381e+003,5.219319e+001
3.147310e+003,5.212626e+001
3.149238e+003,5.203896e+001
3.151167e+003,5.197363e+001
3.153095e+003,5.199234e+001
3.155023e+003,5.201133e+001
3.156952e+003,5.199033e+001
3.158881e+003,5.193451e+001
3.160809e+003,5.186919e+001
3.162738e+003,5.188048e+001
3.164666e+003,5.185616e+001
3.166594e+003,5.181199e+001
3.168523e+003,5.179559e+001
3.170452e+003,5.177040e+001
3.172380e+003,5.172717e+001
3.174309e+003,5.166904e+001
3.176237e+003,5.164504e+001
3.178166e+003,5.161980e+001
3.180094e+003,5.160115e+001
3.182022e+003,5.159190e+001
3.183951e+003,5.156225e+001
3.185880e+003,5.152338e+001
3.187808e+003,5.143325e+001
3.189737e+003,5.139302e+001
3.191665e+003,5.139391e+001
3.193594e+003,5.140160e+001
3.195522e+003,5.129289e+001
3.197450e+003,5.120459e+001
3.199379e+003,5.125172e+001
3.201308e+003,5.125729e+001
3.203236e+003,5.124024e+001
3.205165e+003,5.120109e+001
3.207093e+003,5.110492e+001
3.209021e+003,5.106160e+001
3.210950e+003,5.105432e+001
3.212878e+003,5.099043e+001
3.214807e+003,5.088408e+001
3.216736e+003,5.084067e+001
3.218664e+003,5.081852e+001
3.220593e+003,5.077677e+001
3.222521e+003,5.073215e+001
3.224449e+003,5.070715e+001
3.226378e+003,5.067569e+001
3.228306e+003,5.064439e+001
3.230235e+003,5.058939e+001
3.232164e+003,5.052208e+001
3.234092e+003,5.048466e+001
3.236021e+003,5.045911e+001
3.237949e+003,5.042338e+001
3.239877e+003,5.043745e+001
3.241806e+003,5.047635e+001
3.243734e+003,5.039948e+001
3.245663e+003,5.028580e+001
3.247592e+003,5.028695e+001
3.249520e+003,5.030513e+001
3.251448e+003,5.027026e+001
3.253377e+003,5.022537e+001
3.255305e+003,5.017295e+001
3.257234e+003,5.014561e+001
3.259162e+003,5.011944e+001
3.261091e+003,5.009067e+001
3.263020e+003,5.005043e+001
3.264948e+003,5.004877e+001
3.266876e+003,4.999721e+001
3.268805e+003,4.989175e+001
3.270733e+003,4.984859e+001
3.272662e+003,4.983166e+001
3.274591e+003,4.987186e+001
3.276519e+003,4.988549e+001
3.278448e+003,4.975314e+001
3.280376e+003,4.973196e+001
3.282304e+003,4.976772e+001
3.284233e+003,4.970425e+001
3.286161e+003,4.970081e+001
3.288090e+003,4.969134e+001
3.290019e+003,4.957865e+001
3.291947e+003,4.950972e+001
3.293875e+003,4.951134e+001
3.295804e+003,4.948896e+001
3.297732e+003,4.943081e+001
3.299661e+003,4.942777e+001
3.301589e+003,4.941136e+001
3.303518e+003,4.931448e+001
3.305447e+003,4.920068e+001
3.307375e+003,4.912030e+001
3.309303e+003,4.914423e+001
3.311232e+003,4.917094e+001
3.313160e+003,4.913789e+001
3.315089e+003,4.911161e+001
3.317017e+003,4.905696e+001
3.318946e+003,4.898972e+001
3.320875e+003,4.892066e+001
3.322803e+003,4.888729e+001
3.324731e+003,4.884774e+001
3.326660e+003,4.883484e+001
3.328588e+003,4.879251e+001
3.330517e+003,4.868277e+001
3.332445e+003,4.864582e+001
3.334374e+003,4.860683e+001
3.336302e+003,4.848253e+001
3.338231e+003,4.836994e+001
3.340159e+003,4.834398e+001
3.342088e+003,4.835048e+001
3.344016e+003,4.831065e+001
3.345945e+003,4.826358e+001
3.347873e+003,4.821243e+001
3.349802e+003,4.809011e+001
3.351730e+003,4.796831e+001
3.353659e+003,4.795181e+001
3.355587e+003,4.794051e+001
3.357516e+003,4.786392e+001
3.359444e+003,4.778169e+001
3.361373e+003,4.770533e+001
3.363302e+003,4.760504e+001
3.365230e+003,4.750655e+001
3.367158e+003,4.745973e+001
3.369087e+003,4.743443e+001
3.371015e+003,4.743811e+001
3.372944e+003,4.743166e+001
3.374872e+003,4.733738e+001
3.376801e+003,4.723806e+001
3.378729e+003,4.721791e+001
3.380658e+003,4.718837e+001
3.382586e+003,4.715685e+001
3.384515e+003,4.711411e+001
3.386443e+003,4.704985e+001
3.388372e+003,4.694528e+001
3.390300e+003,4.683469e+001
3.392229e+003,4.677286e+001
3.394157e+003,4.677527e+001
3.396086e+003,4.675573e+001
3.398014e+003,4.672669e+001
3.399943e+003,4.670488e+001
3.401871e+003,4.666660e+001
3.403800e+003,4.661653e+001
3.405728e+003,4.659383e+001
3.407657e+003,4.658937e+001
3.409585e+003,4.659124e+001
3.411514e+003,4.653897e+001
3.413442e+003,4.656192e+001
3.415371e+003,4.660015e+001
3.417299e+003,4.655803e+001
3.419228e+003,4.646082e+001
3.421156e+003,4.638186e+001
3.423085e+003,4.639129e+001
3.425013e+003,4.642929e+001
3.426942e+003,4.638268e+001
3.428870e+003,4.631734e+001
3.430799e+003,4.628779e+001
3.432727e+003,4.630061e+001
3.434656e+003,4.634649e+001
3.436584e+003,4.637954e+001
3.438513e+003,4.640776e+001
3.440441e+003,4.640009e+001
3.442370e+003,4.642323e+001
3.444298e+003,4.647436e+001
3.446227e+003,4.638820e+001
3.448155e+003,4.641788e+001
3.450084e+003,4.644093e+001
3.452012e+003,4.637458e+001
3.453941e+003,4.637035e+001
3.455869e+003,4.641177e+001
3.457798e+003,4.639837e+001
3.459726e+003,4.635532e+001
3.461655e+003,4.633842e+001
3.463583e+003,4.647649e+001
3.465512e+003,4.650154e+001
3.467440e+003,4.649649e+001
3.469369e+003,4.654668e+001
3.471297e+003,4.653528e+001
3.473226e+003,4.652819e+001
3.475154e+003,4.657891e+001
3.477083e+003,4.661793e+001
3.479011e+003,4.661416e+001
3.480940e+003,4.663769e+001
3.482868e+003,4.670611e+001
3.484797e+003,4.676970e+001
3.486725e+003,4.674638e+001
3.488654e+003,4.676188e+001
3.490582e+003,4.683466e+001
3.492511e+003,4.687697e+001
3.494439e+003,4.691753e+001
3.496368e+003,4.695615e+001
3.498296e+003,4.701183e+001
3.500225e+003,4.699163e+001
3.502153e+003,4.693979e+001
3.504082e+003,4.696978e+001
3.506010e+003,4.704158e+001
3.507939e+003,4.705857e+001
3.509867e+003,4.705867e+001
3.511796e+003,4.719438e+001
3.513724e+003,4.727695e+001
3.515653e+003,4.723451e+001
3.517581e+003,4.721910e+001
3.519510e+003,4.732370e+001
3.521438e+003,4.739176e+001
3.523367e+003,4.738495e+001
3.525295e+003,4.744796e+001
3.527224e+003,4.749464e+001
3.529152e+003,4.749823e+001
3.531081e+003,4.761326e+001
3.533009e+003,4.766707e+001
3.534938e+003,4.767750e+001
3.536866e+003,4.777330e+001
3.538795e+003,4.774863e+001
3.540723e+003,4.775742e+001
3.542652e+003,4.785843e+001
3.544580e+003,4.787986e+001
3.546509e+003,4.788772e+001
3.548437e+003,4.799335e+001
3.550366e+003,4.805541e+001
3.552294e+003,4.800177e+001
3.554223e+003,4.806638e+001
3.556151e+003,4.820972e+001
3.558080e+003,4.823492e+001
3.560008e+003,4.821735e+001
3.561937e+003,4.830929e+001
3.563865e+003,4.839882e+001
3.565794e+003,4.849276e+001
3.567722e+003,4.840343e+001
3.569651e+003,4.850235e+001
3.571579e+003,4.866868e+001
3.573508e+003,4.873288e+001
3.575436e+003,4.876585e+001
3.577365e+003,4.879643e+001
3.579293e+003,4.883794e+001
3.581222e+003,4.887429e+001
3.583150e+003,4.886831e+001
3.585079e+003,4.892733e+001
3.587007e+003,4.900858e+001
3.588936e+003,4.901879e+001
3.590864e+003,4.900768e+001
3.592793e+003,4.908292e+001
3.594721e+003,4.918056e+001
3.596650e+003,4.924171e+001
3.598578e+003,4.916569e+001
3.600507e+003,4.924476e+001
3.602435e+003,4.944108e+001
3.604364e+003,4.954488e+001
3.606292e+003,4.963008e+001
3.608221e+003,4.977873e+001
3.610149e+003,4.990225e+001
3.612078e+003,4.991884e+001
3.614006e+003,4.992879e+001
3.615935e+003,4.995641e+001
3.617863e+003,4.992736e+001
3.619792e+003,5.003270e+001
3.621720e+003,5.015946e+001
3.623649e+003,5.029692e+001
3.625577e+003,5.039767e+001
3.627506e+003,5.051277e+001
3.629434e+003,5.046077e+001
3.631363e+003,5.049818e+001
3.633291e+003,5.066451e+001
3.635220e+003,5.086908e+001
3.637148e+003,5.098928e+001
3.639077e+003,5.102844e+001
3.641005e+003,5.110221e+001
3.642934e+003,5.118878e+001
3.644862e+003,5.141862e+001
3.646791e+003,5.165482e+001
3.648719e+003,5.154422e+001
3.650648e+003,5.153303e+001
3.652576e+003,5.165970e+001
3.654505e+003,5.171497e+001
3.656433e+003,5.174909e+001
3.658362e+003,5.182150e+001
3.660290e+003,5.190041e+001
3.662219e+003,5.197682e+001
3.664147e+003,5.206636e+001
3.666076e+003,5.205717e+001
3.668004e+003,5.203461e+001
3.669933e+003,5.219194e+001
3.671861e+003,5.233320e+001
3.673790e+003,5.241885e+001
3.675718e+003,5.211788e+001
3.677647e+003,5.198149e+001
3.679575e+003,5.204403e+001
3.681504e+003,5.211700e+001
3.683432e+003,5.210295e+001
3.685361e+003,5.203975e+001
3.687289e+003,5.206261e+001
3.689218e+003,5.194095e+001
3.691146e+003,5.187528e+001
3.693075e+003,5.184608e+001
3.695003e+003,5.178138e+001
3.696932e+003,5.170424e+001
3.698860e+003,5.178903e+001
3.700789e+003,5.185794e+001
3.702717e+003,5.176567e+001
3.704646e+003,5.169703e+001
3.706574e+003,5.170232e+001
3.708503e+003,5.168939e+001
3.710431e+003,5.162925e+001
3.712360e+003,5.184132e+001
3.714288e+003,5.197987e+001
3.716217e+003,5.192114e+001
3.718145e+003,5.179077e+001
3.720074e+003,5.168978e+001
3.722002e+003,5.161200e+001
3.723931e+003,5.159451e+001
3.725859e+003,5.146692e+001
3.727788e+003,5.153980e+001
3.729716e+003,5.173096e+001
3.731645e+003,5.176705e+001
3.733573e+003,5.204696e+001
3.735502e+003,5.207803e+001
3.737430e+003,5.196355e+001
3.739359e+003,5.195569e+001
3.741287e+003,5.203868e+001
3.743216e+003,5.201983e+001
3.745144e+003,5.173763e+001
3.747073e+003,5.162439e+001
3.749001e+003,5.137736e+001
3.750930e+003,5.132485e+001
3.752858e+003,5.134719e+001
3.754787e+003,5.134111e+001
3.756715e+003,5.136446e+001
3.758644e+003,5.117802e+001
3.760572e+003,5.110432e+001
3.762500e+003,5.123307e+001
3.764429e+003,5.122110e+001
3.766358e+003,5.117122e+001
3.768286e+003,5.110657e+001
3.770215e+003,5.099585e+001
3.772143e+003,5.106958e+001
3.774072e+003,5.108536e+001
3.776000e+003,5.109982e+001
3.777928e+003,5.112007e+001
3.779857e+003,5.106020e+001
3.781786e+003,5.113152e+001
3.783714e+003,5.105413e+001
3.785643e+003,5.100629e+001
3.787571e+003,5.105184e+001
3.789500e+003,5.103582e+001
3.791428e+003,5.097974e+001
3.793356e+003,5.091793e+001
3.795285e+003,5.081806e+001
3.797214e+003,5.077896e+001
3.799142e+003,5.092782e+001
3.801071e+003,5.095658e+001
3.802999e+003,5.095086e+001
3.804927e+003,5.101379e+001
3.806856e+003,5.085819e+001
3.808785e+003,5.087024e+001
3.810713e+003,5.090489e+001
3.812642e+003,5.090019e+001
3.814570e+003,5.090632e+001
3.816499e+003,5.078474e+001
3.818427e+003,5.082368e+001
3.820355e+003,5.064835e+001
3.822284e+003,5.064206e+001
3.824213e+003,5.081031e+001
3.826141e+003,5.068184e+001
3.828070e+003,5.063153e+001
3.829998e+003,5.069379e+001
3.831927e+003,5.061005e+001
3.833855e+003,5.068072e+001
3.835783e+003,5.076635e+001
3.837712e+003,5.069575e+001
3.839641e+003,5.057550e+001
3.841569e+003,5.062265e+001
3.843498e+003,5.051764e+001
3.845426e+003,5.065178e+001
3.847354e+003,5.072731e+001
3.849283e+003,5.067915e+001
3.851211e+003,5.071467e+001
3.853140e+003,5.058925e+001
3.855069e+003,5.039197e+001
3.856997e+003,5.046651e+001
3.858926e+003,5.067220e+001
3.860854e+003,5.073989e+001
3.862782e+003,5.064399e+001
3.864711e+003,5.049413e+001
3.866639e+003,5.054161e+001
3.868568e+003,5.062772e+001
3.870497e+003,5.051567e+001
3.872425e+003,5.059363e+001
3.874354e+003,5.057939e+001
3.876282e+003,5.066924e+001
3.878210e+003,5.075636e+001
3.880139e+003,5.062090e+001
3.882067e+003,5.049720e+001
3.883996e+003,5.043911e+001
3.885925e+003,5.036657e+001
3.887853e+003,5.048632e+001
3.889781e+003,5.045138e+001
3.891710e+003,5.030402e+001
3.893638e+003,5.045237e+001
3.895567e+003,5.058945e+001
3.897495e+003,5.053475e+001
3.899424e+003,5.045717e+001
3.901353e+003,5.051245e+001
3.903281e+003,5.040860e+001
3.905209e+003,5.034182e+001
3.907138e+003,5.049923e+001
3.909066e+003,5.048769e+001
3.910995e+003,5.039209e+001
3.912924e+003,5.039777e+001
3.914852e+003,5.047816e+001
3.916781e+003,5.046914e+001
3.918709e+003,5.045547e+001
3.920637e+003,5.047899e+001
3.922566e+003,5.045374e+001
3.924494e+003,5.029145e+001
3.926423e+003,5.027491e+001
3.928352e+003,5.024715e+001
3.930280e+003,5.025953e+001
3.932208e+003,5.040010e+001
3.934137e+003,5.040300e+001
3.936065e+003,5.039613e+001
3.937994e+003,5.039604e+001
3.939922e+003,5.035823e+001
3.941851e+003,5.027641e+001
3.943780e+003,5.032001e+001
3.945708e+003,5.036679e+001
3.947636e+003,5.026992e+001
3.949565e+003,5.021078e+001
3.951493e+003,5.020174e+001
3.953422e+003,5.023300e+001
3.955350e+003,5.025173e+001
3.957279e+003,5.016850e+001
3.959208e+003,5.019765e+001
3.961136e+003,5.021782e+001
3.963064e+003,5.019282e+001
3.964993e+003,5.024208e+001
3.966921e+003,5.027054e+001
3.968850e+003,5.012494e+001
3.970778e+003,5.004763e+001
3.972707e+003,5.007835e+001
3.974635e+003,5.003028e+001
3.976564e+003,5.004265e+001
3.978492e+003,5.004895e+001
3.980421e+003,5.002702e+001
3.982349e+003,5.001577e+001
3.984278e+003,4.999542e+001
3.986206e+003,4.995665e+001
3.988135e+003,4.995105e+001
3.990063e+003,4.999842e+001
3.991992e+003,5.006644e+001
3.993920e+003,5.000972e+001
3.995849e+003,4.994740e+001
3.997777e+003,4.996748e+001
3.999706e+003,4.999877e+001
