3.991992e+002,6.233237e+001
4.011277e+002,6.023893e+001
4.030562e+002,5.937545e+001
4.049847e+002,5.839438e+001
4.069132e+002,5.861742e+001
4.088417e+002,5.768198e+001
4.107702e+002,5.717442e+001
4.126987e+002,5.625968e+001
4.146272e+002,5.397099e+001
4.165557e+002,5.175103e+001
4.184842e+002,5.060334e+001
4.204127e+002,4.831928e+001
4.223412e+002,4.720665e+001
4.242697e+002,4.541209e+001
4.261982e+002,4.372247e+001
4.281267e+002,4.231640e+001
4.300552e+002,4.057901e+001
4.319837e+002,3.824590e+001
4.339122e+002,3.672238e+001
4.358407e+002,3.497460e+001
4.377692e+002,3.335677e+001
4.396977e+002,3.184146e+001
4.416262e+002,3.008794e+001
4.435547e+002,2.757157e+001
4.454832e+002,2.582023e+001
4.474117e+002,2.396923e+001
4.493401e+002,2.240716e+001
4.512686e+002,2.168885e+001
4.531971e+002,2.141470e+001
4.551256e+002,2.066201e+001
4.570541e+002,1.967243e+001
4.589826e+002,1.857531e+001
4.609111e+002,1.802099e+001
4.628396e+002,1.707244e+001
4.647681e+002,1.629980e+001
4.666966e+002,1.516669e+001
4.686251e+002,1.444228e+001
4.705536e+002,1.376585e+001
4.724821e+002,1.332162e+001
4.744106e+002,1.280217e+001
4.763391e+002,1.276216e+001
4.782676e+002,1.288416e+001
4.801961e+002,1.382706e+001
4.821246e+002,1.505967e+001
4.840531e+002,1.663285e+001
4.859816e+002,1.820351e+001
4.879101e+002,2.020471e+001
4.898386e+002,2.234333e+001
4.917671e+002,2.514140e+001
4.936956e+002,2.817081e+001
4.956241e+002,3.133988e+001
4.975526e+002,3.455637e+001
4.994811e+002,3.781756e+001
5.014096e+002,4.115120e+001
5.033381e+002,4.385365e+001
5.052666e+002,4.427625e+001
5.071951e+002,4.251725e+001
5.091236e+002,3.885216e+001
5.110521e+002,3.476067e+001
5.129806e+002,3.173220e+001
5.149091e+002,3.051730e+001
5.168376e+002,3.094388e+001
5.187661e+002,3.202510e+001
5.206946e+002,3.284351e+001
5.226231e+002,3.339299e+001
5.245516e+002,3.377081e+001
5.264801e+002,3.443057e+001
5.284086e+002,3.522656e+001
5.303371e+002,3.643015e+001
5.322656e+002,3.838597e+001
5.341941e+002,4.074966e+001
5.361226e+002,4.296530e+001
5.380511e+002,4.491121e+001
5.399796e+002,4.658803e+001
5.419081e+002,4.816904e+001
5.438365e+002,4.948218e+001
5.457651e+002,5.032593e+001
5.476936e+002,5.045254e+001
5.496221e+002,5.048086e+001
5.515506e+002,5.079451e+001
5.534791e+002,5.221435e+001
5.554076e+002,5.461531e+001
5.573361e+002,5.766210e+001
5.592646e+002,6.065136e+001
5.611931e+002,6.362354e+001
5.631216e+002,6.649881e+001
5.650500e+002,6.942936e+001
5.669786e+002,7.235597e+001
5.689070e+002,7.504410e+001
5.708356e+002,7.715064e+001
5.727640e+002,7.866582e+001
5.746926e+002,7.915348e+001
5.766210e+002,7.898696e+001
5.785496e+002,7.907496e+001
5.804780e+002,8.060163e+001
5.824066e+002,8.288694e+001
5.843350e+002,8.537521e+001
5.862635e+002,8.817368e+001
5.881920e+002,9.100836e+001
5.901205e+002,9.387508e+001
5.920490e+002,9.670571e+001
5.939775e+002,9.827864e+001
5.959060e+002,9.935719e+001
5.978345e+002,1.000000e+002
5.997631e+002,9.978938e+001
6.016915e+002,9.818954e+001
6.036201e+002,9.510725e+001
6.055485e+002,9.104815e+001
6.074771e+002,8.747885e+001
6.094055e+002,8.591625e+001
6.113340e+002,8.698961e+001
6.132625e+002,8.946890e+001
6.151910e+002,9.188115e+001
6.171195e+002,9.357467e+001
6.190480e+002,9.465720e+001
6.209765e+002,9.444245e+001
6.229050e+002,9.327971e+001
6.248335e+002,9.297327e+001
6.267620e+002,9.398117e+001
6.286905e+002,9.570342e+001
6.306190e+002,9.703419e+001
6.325475e+002,9.746791e+001
6.344760e+002,9.707640e+001
6.364045e+002,9.608255e+001
6.383330e+002,9.456160e+001
6.402615e+002,9.286742e+001
6.421900e+002,9.088583e+001
6.441185e+002,8.891424e+001
6.460470e+002,8.675544e+001
6.479755e+002,8.436733e+001
6.499040e+002,8.249123e+001
6.518325e+002,8.115519e+001
6.537610e+002,7.944417e+001
6.556895e+002,7.748304e+001
6.576180e+002,7.514095e+001
6.595465e+002,7.244371e+001
6.614750e+002,6.945467e+001
6.634035e+002,6.669147e+001
6.653320e+002,6.396614e+001
6.672605e+002,5.886349e+001
6.691890e+002,5.322482e+001
6.711175e+002,5.284759e+001
6.730460e+002,5.075598e+001
6.749745e+002,4.802646e+001
6.769030e+002,4.553760e+001
6.788315e+002,4.357779e+001
6.807599e+002,4.185966e+001
6.826885e+002,4.037369e+001
6.846169e+002,3.859723e+001
6.865455e+002,3.662649e+001
6.884739e+002,3.425327e+001
6.904025e+002,3.208944e+001
6.923309e+002,3.023860e+001
6.942595e+002,2.873325e+001
6.961880e+002,2.712589e+001
6.981165e+002,2.571942e+001
7.000450e+002,2.469724e+001
7.019734e+002,2.405748e+001
7.039020e+002,2.350752e+001
7.058304e+002,2.321317e+001
7.077590e+002,2.292056e+001
7.096874e+002,2.289106e+001
7.116160e+002,2.288738e+001
7.135444e+002,2.289223e+001
7.154730e+002,2.282195e+001
7.174014e+002,2.302364e+001
7.193300e+002,2.352908e+001
7.212584e+002,2.473086e+001
7.231870e+002,2.633571e+001
7.251154e+002,2.809043e+001
7.270439e+002,3.004100e+001
7.289724e+002,3.228444e+001
7.309009e+002,3.460704e+001
7.328294e+002,3.707629e+001
7.347579e+002,3.966653e+001
7.366864e+002,4.230208e+001
7.386149e+002,4.479001e+001
7.405434e+002,4.715163e+001
7.424719e+002,4.919518e+001
7.444004e+002,5.078178e+001
7.463289e+002,5.208886e+001
7.482574e+002,5.347784e+001
7.501859e+002,5.516233e+001
7.521144e+002,5.725490e+001
7.540429e+002,5.974611e+001
7.559714e+002,6.231997e+001
7.578999e+002,6.473323e+001
7.598284e+002,6.690441e+001
7.617569e+002,6.899483e+001
7.636854e+002,7.116070e+001
7.656139e+002,7.340398e+001
7.675424e+002,7.548515e+001
7.694709e+002,7.739725e+001
7.713994e+002,7.920107e+001
7.733279e+002,8.107245e+001
7.752564e+002,8.288867e+001
7.771849e+002,8.446008e+001
7.791134e+002,8.579780e+001
7.810419e+002,8.724236e+001
7.829704e+002,8.883987e+001
7.848989e+002,9.047245e+001
7.868274e+002,9.175733e+001
7.887559e+002,9.270383e+001
7.906844e+002,9.336949e+001
7.926129e+002,9.402662e+001
7.945414e+002,9.449545e+001
7.964699e+002,9.453770e+001
7.983984e+002,9.410989e+001
8.003269e+002,9.369940e+001
8.022554e+002,9.327871e+001
8.041839e+002,9.273418e+001
8.061124e+002,9.181777e+001
8.080409e+002,9.076408e+001
8.099694e+002,8.971941e+001
8.118979e+002,8.887254e+001
8.138264e+002,8.796188e+001
8.157549e+002,8.687402e+001
8.176833e+002,8.552020e+001
8.196119e+002,8.425249e+001
8.215403e+002,8.316568e+001
8.234689e+002,8.210685e+001
8.253973e+002,8.082189e+001
8.273259e+002,7.944621e+001
8.292543e+002,7.802142e+001
8.311829e+002,7.679817e+001
8.331113e+002,7.563200e+001
8.350399e+002,7.432651e+001
8.369683e+002,7.293186e+001
8.388969e+002,7.160592e+001
8.408253e+002,7.037037e+001
8.427538e+002,6.922438e+001
8.446824e+002,6.796111e+001
8.466108e+002,6.660295e+001
8.485394e+002,6.526173e+001
8.504678e+002,6.403889e+001
8.523964e+002,6.289010e+001
8.543248e+002,6.164508e+001
8.562534e+002,6.025627e+001
8.581818e+002,5.893284e+001
8.601104e+002,5.770984e+001
8.620388e+002,5.646618e+001
8.639673e+002,5.516059e+001
8.658958e+002,5.388166e+001
8.678243e+002,5.262479e+001
8.697528e+002,5.137336e+001
8.716813e+002,5.014178e+001
8.736098e+002,4.885507e+001
8.755383e+002,4.752876e+001
8.774668e+002,4.630885e+001
8.793953e+002,4.510579e+001
8.813238e+002,4.392384e+001
8.832523e+002,4.267871e+001
8.851808e+002,4.144664e+001
8.871093e+002,4.025339e+001
8.890378e+002,3.906731e+001
8.909663e+002,3.788376e+001
8.928948e+002,3.666404e+001
8.948233e+002,3.546464e+001
8.967518e+002,3.428022e+001
8.986803e+002,3.318305e+001
9.006088e+002,3.209497e+001
9.025373e+002,3.095032e+001
9.044658e+002,2.977432e+001
9.063943e+002,2.876207e+001
9.083228e+002,2.778073e+001
9.102513e+002,2.672831e+001
9.121798e+002,2.563255e+001
9.141083e+002,2.457280e+001
9.160368e+002,2.359560e+001
9.179653e+002,2.260049e+001
9.198938e+002,2.155796e+001
9.218223e+002,2.056772e+001
9.237508e+002,1.959782e+001
9.256793e+002,1.868184e+001
9.276078e+002,1.778950e+001
9.295363e+002,1.698560e+001
9.314648e+002,1.621371e+001
9.333932e+002,1.551859e+001
9.353218e+002,1.486592e+001
9.372502e+002,1.431118e+001
9.391788e+002,1.385400e+001
9.411072e+002,1.347505e+001
9.430358e+002,1.314229e+001
9.449643e+002,1.292326e+001
9.468928e+002,1.276336e+001
9.488213e+002,1.268159e+001
9.507498e+002,1.248639e+001
9.526783e+002,1.225271e+001
9.546068e+002,1.206745e+001
9.565353e+002,1.188887e+001
9.584637e+002,1.172430e+001
9.603923e+002,1.159189e+001
9.623207e+002,1.147317e+001
9.642493e+002,1.136993e+001
9.661777e+002,1.120929e+001
9.681063e+002,1.101971e+001
9.700347e+002,1.084618e+001
9.719633e+002,1.077067e+001
9.738917e+002,1.071303e+001
9.758203e+002,1.059829e+001
9.777487e+002,1.049011e+001
9.796772e+002,1.044010e+001
9.816057e+002,1.031454e+001
9.835342e+002,1.025231e+001
9.854627e+002,1.021225e+001
9.873912e+002,1.012803e+001
9.893197e+002,1.004073e+001
9.912482e+002,1.001330e+001
9.931768e+002,1.000000e+001
9.951052e+002,1.000913e+001
9.970338e+002,1.004733e+001
9.989622e+002,1.013283e+001
1.000891e+003,1.017177e+001
1.002819e+003,1.025254e+001
1.004748e+003,1.028042e+001
1.006676e+003,1.031891e+001
1.008605e+003,1.045688e+001
1.010533e+003,1.060445e+001
1.012462e+003,1.069818e+001
1.014390e+003,1.084125e+001
1.016319e+003,1.094601e+001
1.018247e+003,1.106589e+001
1.020176e+003,1.112071e+001
1.022104e+003,1.118139e+001
1.024033e+003,1.128538e+001
1.025961e+003,1.141406e+001
1.027890e+003,1.142151e+001
1.029818e+003,1.144729e+001
1.031747e+003,1.151879e+001
1.033675e+003,1.163552e+001
1.035604e+003,1.172447e+001
1.037532e+003,1.180714e+001
1.039461e+003,1.192808e+001
1.041389e+003,1.209770e+001
1.043318e+003,1.229741e+001
1.045246e+003,1.252035e+001
1.047175e+003,1.278095e+001
1.049103e+003,1.309229e+001
1.051032e+003,1.329082e+001
1.052960e+003,1.344213e+001
1.054889e+003,1.355895e+001
1.056817e+003,1.362998e+001
1.058746e+003,1.373498e+001
1.060674e+003,1.390070e+001
1.062603e+003,1.406780e+001
1.064531e+003,1.432030e+001
1.066460e+003,1.452324e+001
1.068388e+003,1.473165e+001
1.070317e+003,1.490044e+001
1.072245e+003,1.504247e+001
1.074174e+003,1.516600e+001
1.076102e+003,1.524580e+001
1.078031e+003,1.523935e+001
1.079959e+003,1.531140e+001
1.081888e+003,1.535744e+001
1.083816e+003,1.539385e+001
1.085745e+003,1.546517e+001
1.087673e+003,1.563835e+001
1.089602e+003,1.583414e+001
1.091530e+003,1.604819e+001
1.093459e+003,1.625932e+001
1.095387e+003,1.652505e+001
1.097316e+003,1.679776e+001
1.099244e+003,1.705278e+001
1.101173e+003,1.726599e+001
1.103101e+003,1.749512e+001
1.105030e+003,1.771554e+001
1.106958e+003,1.791294e+001
1.108887e+003,1.804837e+001
1.110815e+003,1.821603e+001
1.112744e+003,1.843652e+001
1.114672e+003,1.863512e+001
1.116601e+003,1.887106e+001
1.118529e+003,1.914902e+001
1.120458e+003,1.940982e+001
1.122386e+003,1.970138e+001
1.124315e+003,1.999446e+001
1.126243e+003,2.029628e+001
1.128172e+003,2.053901e+001
1.130100e+003,2.079462e+001
1.132029e+003,2.112246e+001
1.133957e+003,2.146256e+001
1.135886e+003,2.172993e+001
1.137814e+003,2.198580e+001
1.139743e+003,2.228217e+001
1.141671e+003,2.259965e+001
1.143600e+003,2.287778e+001
1.145528e+003,2.312183e+001
1.147457e+003,2.336074e+001
1.149385e+003,2.361748e+001
1.151314e+003,2.386810e+001
1.153242e+003,2.414107e+001
1.155171e+003,2.442534e+001
1.157099e+003,2.466956e+001
1.159028e+003,2.485490e+001
1.160956e+003,2.506424e+001
1.162885e+003,2.526107e+001
1.164813e+003,2.552737e+001
1.166742e+003,2.580041e+001
1.168670e+003,2.598093e+001
1.170599e+003,2.618755e+001
1.172527e+003,2.643371e+001
1.174456e+003,2.663901e+001
1.176384e+003,2.683266e+001
1.178313e+003,2.702435e+001
1.180241e+003,2.721387e+001
1.182170e+003,2.740664e+001
1.184098e+003,2.760883e+001
1.186027e+003,2.783629e+001
1.187955e+003,2.804844e+001
1.189884e+003,2.820035e+001
1.191812e+003,2.840702e+001
1.193741e+003,2.860345e+001
1.195669e+003,2.875854e+001
1.197598e+003,2.889979e+001
1.199526e+003,2.905887e+001
1.201455e+003,2.924648e+001
1.203383e+003,2.941889e+001
1.205312e+003,2.959608e+001
1.207240e+003,2.978877e+001
1.209169e+003,2.994602e+001
1.211097e+003,3.008072e+001
1.213026e+003,3.022672e+001
1.214954e+003,3.037987e+001
1.216883e+003,3.052798e+001
1.218811e+003,3.065229e+001
1.220740e+003,3.079434e+001
1.222668e+003,3.096929e+001
1.224597e+003,3.111819e+001
1.226525e+003,3.121568e+001
1.228453e+003,3.128800e+001
1.230382e+003,3.138512e+001
1.232311e+003,3.154610e+001
1.234239e+003,3.170412e+001
1.236167e+003,3.180384e+001
1.238096e+003,3.188824e+001
1.240025e+003,3.202668e+001
1.241953e+003,3.218354e+001
1.243882e+003,3.228657e+001
1.245810e+003,3.236406e+001
1.247739e+003,3.247784e+001
1.249667e+003,3.259412e+001
1.251596e+003,3.270533e+001
1.253524e+003,3.280465e+001
1.255453e+003,3.291669e+001
1.257381e+003,3.300640e+001
1.259310e+003,3.311191e+001
1.261238e+003,3.324327e+001
1.263167e+003,3.336264e+001
1.265095e+003,3.346677e+001
1.267024e+003,3.352127e+001
1.268952e+003,3.360898e+001
1.270880e+003,3.375255e+001
1.272809e+003,3.387503e+001
1.274738e+003,3.392139e+001
1.276666e+003,3.399586e+001
1.278594e+003,3.411481e+001
1.280523e+003,3.420667e+001
1.282452e+003,3.431552e+001
1.284380e+003,3.440768e+001
1.286308e+003,3.448838e+001
1.288237e+003,3.460820e+001
1.290166e+003,3.470514e+001
1.292094e+003,3.477799e+001
1.294022e+003,3.483294e+001
1.295951e+003,3.491732e+001
1.297880e+003,3.500737e+001
1.299808e+003,3.505604e+001
1.301736e+003,3.512857e+001
1.303665e+003,3.523094e+001
1.305594e+003,3.532419e+001
1.307522e+003,3.541802e+001
1.309450e+003,3.549096e+001
1.311379e+003,3.555972e+001
1.313307e+003,3.572623e+001
1.315236e+003,3.575938e+001
1.317164e+003,3.580457e+001
1.319093e+003,3.594275e+001
1.321021e+003,3.602282e+001
1.322950e+003,3.602113e+001
1.324878e+003,3.603410e+001
1.326807e+003,3.608934e+001
1.328735e+003,3.619289e+001
1.330664e+003,3.624445e+001
1.332592e+003,3.628979e+001
1.334521e+003,3.631371e+001
1.336449e+003,3.642179e+001
1.338378e+003,3.671375e+001
1.340307e+003,3.703423e+001
1.342235e+003,3.680106e+001
1.344163e+003,3.664378e+001
1.346092e+003,3.666309e+001
1.348021e+003,3.673474e+001
1.349949e+003,3.682030e+001
1.351877e+003,3.683553e+001
1.353806e+003,3.688850e+001
1.355734e+003,3.699104e+001
1.357663e+003,3.699668e+001
1.359591e+003,3.700272e+001
1.361520e+003,3.720308e+001
1.363448e+003,3.751440e+001
1.365377e+003,3.725465e+001
1.367305e+003,3.718060e+001
1.369234e+003,3.735937e+001
1.371162e+003,3.729253e+001
1.373091e+003,3.737587e+001
1.375019e+003,3.771867e+001
1.376948e+003,3.753998e+001
1.378876e+003,3.747325e+001
1.380805e+003,3.742544e+001
1.382733e+003,3.739871e+001
1.384662e+003,3.738246e+001
1.386590e+003,3.772540e+001
1.388519e+003,3.796828e+001
1.390447e+003,3.771791e+001
1.392376e+003,3.755355e+001
1.394304e+003,3.786102e+001
1.396233e+003,3.815150e+001
1.398161e+003,3.807790e+001
1.400090e+003,3.821382e+001
1.402018e+003,3.783498e+001
1.403947e+003,3.782909e+001
1.405875e+003,3.805597e+001
1.407804e+003,3.791712e+001
1.409732e+003,3.789966e+001
1.411661e+003,3.802522e+001
1.413589e+003,3.797511e+001
1.415518e+003,3.793935e+001
1.417446e+003,3.818528e+001
1.419375e+003,3.895681e+001
1.421303e+003,3.863466e+001
1.423232e+003,3.837498e+001
1.425160e+003,3.853712e+001
1.427089e+003,3.826134e+001
1.429017e+003,3.843616e+001
1.430946e+003,3.867070e+001
1.432874e+003,3.852451e+001
1.434803e+003,3.837055e+001
1.436731e+003,3.907211e+001
1.438660e+003,3.898225e+001
1.440588e+003,3.858818e+001
1.442517e+003,3.853897e+001
1.444445e+003,3.854256e+001
1.446374e+003,3.863212e+001
1.448302e+003,3.900571e+001
1.450231e+003,3.891336e+001
1.452159e+003,3.881989e+001
1.454088e+003,3.869566e+001
1.456016e+003,3.909351e+001
1.457945e+003,4.071644e+001
1.459873e+003,3.980190e+001
1.461802e+003,3.894725e+001
1.463730e+003,3.893045e+001
1.465659e+003,3.944329e+001
1.467587e+003,3.907553e+001
1.469516e+003,3.869381e+001
1.471444e+003,3.895361e+001
1.473373e+003,4.008686e+001
1.475301e+003,3.971265e+001
1.477230e+003,3.941721e+001
1.479158e+003,3.904836e+001
1.481087e+003,3.908347e+001
1.483015e+003,3.905679e+001
1.484944e+003,3.888837e+001
1.486872e+003,3.915802e+001
1.488801e+003,3.977297e+001
1.490729e+003,4.019012e+001
1.492658e+003,3.944138e+001
1.494586e+003,3.898943e+001
1.496515e+003,3.963283e+001
1.498443e+003,3.997771e+001
1.500372e+003,3.972708e+001
1.502300e+003,3.937523e+001
1.504229e+003,3.896901e+001
1.506157e+003,3.997797e+001
1.508086e+003,4.206114e+001
1.510014e+003,4.058114e+001
1.511943e+003,3.994773e+001
1.513871e+003,3.961398e+001
1.515800e+003,3.973566e+001
1.517728e+003,4.032700e+001
1.519657e+003,3.989585e+001
1.521585e+003,4.110843e+001
1.523514e+003,4.091598e+001
1.525442e+003,4.053198e+001
1.527371e+003,4.058372e+001
1.529299e+003,4.015630e+001
1.531228e+003,3.971036e+001
1.533156e+003,4.040177e+001
1.535085e+003,4.066466e+001
1.537013e+003,3.974347e+001
1.538942e+003,3.992215e+001
1.540870e+003,4.263634e+001
1.542799e+003,4.194755e+001
1.544727e+003,4.139465e+001
1.546656e+003,4.060063e+001
1.548584e+003,4.014602e+001
1.550513e+003,4.055836e+001
1.552441e+003,4.030898e+001
1.554370e+003,4.055095e+001
1.556298e+003,4.034940e+001
1.558227e+003,4.092859e+001
1.560155e+003,4.274410e+001
1.562084e+003,4.100616e+001
1.564012e+003,4.048938e+001
1.565941e+003,4.047940e+001
1.567869e+003,4.015153e+001
1.569798e+003,4.102334e+001
1.571726e+003,4.081487e+001
1.573655e+003,4.014877e+001
1.575583e+003,4.064777e+001
1.577512e+003,4.133502e+001
1.579440e+003,4.052034e+001
1.581369e+003,4.022343e+001
1.583297e+003,4.017463e+001
1.585226e+003,4.011849e+001
1.587154e+003,4.008722e+001
1.589083e+003,4.012713e+001
1.591011e+003,4.014475e+001
1.592940e+003,4.010674e+001
1.594868e+003,4.017558e+001
1.596797e+003,4.014886e+001
1.598725e+003,3.998214e+001
1.600654e+003,3.997756e+001
1.602582e+003,4.007479e+001
1.604511e+003,4.000198e+001
1.606439e+003,3.990691e+001
1.608368e+003,4.002976e+001
1.610296e+003,3.999092e+001
1.612225e+003,3.980666e+001
1.614153e+003,3.957547e+001
1.616082e+003,4.014423e+001
1.618010e+003,4.070145e+001
1.619939e+003,3.995752e+001
1.621867e+003,3.982143e+001
1.623796e+003,4.045760e+001
1.625724e+003,4.004841e+001
1.627653e+003,3.999068e+001
1.629581e+003,4.000150e+001
1.631510e+003,3.956348e+001
1.633438e+003,3.922832e+001
1.635367e+003,4.021857e+001
1.637295e+003,4.108107e+001
1.639224e+003,4.013617e+001
1.641152e+003,3.976628e+001
1.643081e+003,3.949384e+001
1.645009e+003,3.941846e+001
1.646938e+003,4.095986e+001
1.648866e+003,4.077628e+001
1.650795e+003,3.947846e+001
1.652723e+003,4.022203e+001
1.654652e+003,4.162791e+001
1.656580e+003,4.031667e+001
1.658509e+003,3.968831e+001
1.660437e+003,3.953986e+001
1.662366e+003,4.000348e+001
1.664294e+003,4.011269e+001
1.666223e+003,3.948271e+001
1.668151e+003,3.965392e+001
1.670080e+003,4.063937e+001
1.672008e+003,4.034596e+001
1.673937e+003,3.978528e+001
1.675865e+003,4.036229e+001
1.677794e+003,3.989692e+001
1.679722e+003,3.981032e+001
1.681651e+003,3.972506e+001
1.683579e+003,4.038258e+001
1.685508e+003,4.147196e+001
1.687436e+003,4.037761e+001
1.689365e+003,4.017289e+001
1.691293e+003,4.001481e+001
1.693222e+003,3.949706e+001
1.695150e+003,3.983190e+001
1.697079e+003,4.094125e+001
1.699007e+003,4.039898e+001
1.700936e+003,4.135101e+001
1.702864e+003,4.049365e+001
1.704793e+003,4.024698e+001
1.706721e+003,4.062274e+001
1.708650e+003,4.014939e+001
1.710578e+003,3.997567e+001
1.712507e+003,3.977850e+001
1.714435e+003,4.009047e+001
1.716364e+003,4.077074e+001
1.718292e+003,4.151221e+001
1.720221e+003,4.060675e+001
1.722149e+003,4.002467e+001
1.724078e+003,4.008222e+001
1.726006e+003,3.991810e+001
1.727935e+003,3.978664e+001
1.729863e+003,4.008316e+001
1.731792e+003,4.008837e+001
1.733720e+003,4.092565e+001
1.735649e+003,4.130207e+001
1.737577e+003,4.030819e+001
1.739506e+003,4.058234e+001
1.741434e+003,4.058920e+001
1.743363e+003,4.057444e+001
1.745291e+003,4.054987e+001
1.747220e+003,4.057703e+001
1.749148e+003,4.099606e+001
1.751077e+003,4.118616e+001
1.753005e+003,4.080172e+001
1.754934e+003,4.020645e+001
1.756862e+003,4.058619e+001
1.758791e+003,4.050552e+001
1.760719e+003,4.036433e+001
1.762648e+003,4.081530e+001
1.764576e+003,4.043384e+001
1.766505e+003,4.018337e+001
1.768433e+003,4.052423e+001
1.770362e+003,4.050581e+001
1.772290e+003,4.140297e+001
1.774219e+003,4.124406e+001
1.776147e+003,4.072920e+001
1.778076e+003,4.048515e+001
1.780004e+003,4.065038e+001
1.781933e+003,4.072653e+001
1.783861e+003,4.050280e+001
1.785790e+003,4.063116e+001
1.787718e+003,4.042356e+001
1.789647e+003,4.026753e+001
1.791575e+003,4.088100e+001
1.793504e+003,4.129031e+001
1.795432e+003,4.089833e+001
1.797361e+003,4.069165e+001
1.799289e+003,4.066262e+001
1.801218e+003,4.095898e+001
1.803146e+003,4.080422e+001
1.805075e+003,4.057077e+001
1.807003e+003,4.052261e+001
1.808932e+003,4.062081e+001
1.810860e+003,4.082770e+001
1.812789e+003,4.080920e+001
1.814717e+003,4.053928e+001
1.816646e+003,4.058237e+001
1.818574e+003,4.061896e+001
1.820503e+003,4.061606e+001
1.822431e+003,4.053535e+001
1.824360e+003,4.074815e+001
1.826288e+003,4.088362e+001
1.828217e+003,4.066552e+001
1.830145e+003,4.127989e+001
1.832074e+003,4.102335e+001
1.834002e+003,4.063094e+001
1.835931e+003,4.068288e+001
1.837859e+003,4.080169e+001
1.839788e+003,4.069909e+001
1.841716e+003,4.048743e+001
1.843645e+003,4.100234e+001
1.845573e+003,4.141037e+001
1.847502e+003,4.103964e+001
1.849430e+003,4.086265e+001
1.851359e+003,4.068442e+001
1.853287e+003,4.066933e+001
1.855216e+003,4.064657e+001
1.857144e+003,4.066495e+001
1.859073e+003,4.069663e+001
1.861001e+003,4.071588e+001
1.862930e+003,4.068559e+001
1.864858e+003,4.062008e+001
1.866786e+003,4.075578e+001
1.868715e+003,4.134126e+001
1.870644e+003,4.125154e+001
1.872572e+003,4.077429e+001
1.874500e+003,4.064783e+001
1.876429e+003,4.064422e+001
1.878358e+003,4.067207e+001
1.880286e+003,4.066228e+001
1.882215e+003,4.062920e+001
1.884143e+003,4.067137e+001
1.886072e+003,4.063240e+001
1.888000e+003,4.055945e+001
1.889929e+003,4.087297e+001
1.891857e+003,4.070282e+001
1.893786e+003,4.055519e+001
1.895714e+003,4.070781e+001
1.897643e+003,4.058920e+001
1.899571e+003,4.045327e+001
1.901500e+003,4.043151e+001
1.903428e+003,4.045650e+001
1.905357e+003,4.042049e+001
1.907285e+003,4.037511e+001
1.909214e+003,4.051324e+001
1.911142e+003,4.051770e+001
1.913071e+003,4.036844e+001
1.914999e+003,4.025409e+001
1.916927e+003,4.032569e+001
1.918856e+003,4.060345e+001
1.920785e+003,4.033972e+001
1.922713e+003,4.050230e+001
1.924641e+003,4.049038e+001
1.926570e+003,4.023312e+001
1.928499e+003,4.016980e+001
1.930427e+003,4.016520e+001
1.932355e+003,4.019590e+001
1.934284e+003,4.021870e+001
1.936213e+003,4.014761e+001
1.938141e+003,4.009913e+001
1.940069e+003,4.001512e+001
1.941998e+003,4.025176e+001
1.943927e+003,4.040562e+001
1.945855e+003,4.023676e+001
1.947783e+003,4.017104e+001
1.949712e+003,4.008316e+001
1.951641e+003,4.009097e+001
1.953569e+003,4.011013e+001
1.955497e+003,4.013749e+001
1.957426e+003,4.009099e+001
1.959354e+003,4.007534e+001
1.961283e+003,4.005532e+001
1.963211e+003,4.004586e+001
1.965140e+003,4.003701e+001
1.967068e+003,4.020770e+001
1.968997e+003,4.016143e+001
1.970925e+003,4.002417e+001
1.972854e+003,4.002641e+001
1.974782e+003,4.003440e+001
1.976711e+003,4.002705e+001
1.978639e+003,4.000411e+001
1.980568e+003,4.001431e+001
1.982496e+003,4.001258e+001
1.984425e+003,3.998737e+001
1.986354e+003,3.994712e+001
1.988282e+003,3.999161e+001
1.990210e+003,3.996834e+001
1.992139e+003,4.015144e+001
1.994068e+003,4.013935e+001
1.995996e+003,3.994745e+001
1.997924e+003,3.993514e+001
1.999853e+003,3.994987e+001
2.001781e+003,3.995809e+001
2.003710e+003,3.992922e+001
2.005638e+003,3.990190e+001
2.007567e+003,3.990646e+001
2.009495e+003,3.990890e+001
2.011424e+003,3.986134e+001
2.013352e+003,3.983097e+001
2.015281e+003,3.984550e+001
2.017209e+003,3.996188e+001
2.019138e+003,3.992215e+001
2.021066e+003,3.984076e+001
2.022995e+003,3.980133e+001
2.024923e+003,3.977724e+001
2.026852e+003,3.972141e+001
2.028780e+003,3.971128e+001
2.030709e+003,3.970924e+001
2.032637e+003,3.972820e+001
2.034566e+003,3.971717e+001
2.036494e+003,3.967982e+001
2.038423e+003,3.962749e+001
2.040351e+003,3.967104e+001
2.042280e+003,3.972310e+001
2.044208e+003,3.968681e+001
2.046137e+003,3.963224e+001
2.048065e+003,3.958706e+001
2.049994e+003,3.957744e+001
2.051922e+003,3.960909e+001
2.053851e+003,3.958186e+001
2.055779e+003,3.955875e+001
2.057708e+003,3.956860e+001
2.059636e+003,3.959551e+001
2.061565e+003,3.957564e+001
2.063493e+003,3.956417e+001
2.065422e+003,3.958149e+001
2.067350e+003,3.953103e+001
2.069279e+003,3.950671e+001
2.071207e+003,3.950828e+001
2.073136e+003,3.949120e+001
2.075064e+003,3.948031e+001
2.076993e+003,3.945248e+001
2.078921e+003,3.948431e+001
2.080850e+003,3.950864e+001
2.082778e+003,3.949039e+001
2.084707e+003,3.946862e+001
2.086635e+003,3.946249e+001
2.088564e+003,3.947742e+001
2.090492e+003,3.951342e+001
2.092421e+003,3.947944e+001
2.094349e+003,3.944936e+001
2.096278e+003,3.941894e+001
2.098206e+003,3.941203e+001
2.100135e+003,3.942748e+001
2.102063e+003,3.943204e+001
2.103992e+003,3.943711e+001
2.105920e+003,3.942545e+001
2.107849e+003,3.940510e+001
2.109777e+003,3.941885e+001
2.111706e+003,3.940756e+001
2.113634e+003,3.939519e+001
2.115563e+003,3.939630e+001
2.117491e+003,3.939482e+001
2.119420e+003,3.938978e+001
2.121348e+003,3.938588e+001
2.123277e+003,3.937688e+001
2.125205e+003,3.937856e+001
2.127134e+003,3.936805e+001
2.129062e+003,3.936347e+001
2.130991e+003,3.934512e+001
2.132919e+003,3.931776e+001
2.134848e+003,3.930491e+001
2.136776e+003,3.932212e+001
2.138705e+003,3.933817e+001
2.140633e+003,3.931104e+001
2.142562e+003,3.928239e+001
2.144490e+003,3.928384e+001
2.146419e+003,3.928922e+001
2.148347e+003,3.929704e+001
2.150276e+003,3.928493e+001
2.152204e+003,3.928125e+001
2.154133e+003,3.926745e+001
2.156061e+003,3.926074e+001
2.157990e+003,3.926497e+001
2.159918e+003,3.927069e+001
2.161847e+003,3.924149e+001
2.163775e+003,3.922604e+001
2.165704e+003,3.923369e+001
2.167632e+003,3.922876e+001
2.169561e+003,3.918646e+001
2.171489e+003,3.919037e+001
2.173418e+003,3.919565e+001
2.175346e+003,3.917886e+001
2.177275e+003,3.916291e+001
2.179203e+003,3.917761e+001
2.181132e+003,3.916012e+001
2.183060e+003,3.916020e+001
2.184989e+003,3.915369e+001
2.186917e+003,3.914130e+001
2.188846e+003,3.914446e+001
2.190774e+003,3.914500e+001
2.192703e+003,3.911847e+001
2.194631e+003,3.911562e+001
2.196560e+003,3.914026e+001
2.198488e+003,3.911864e+001
2.200417e+003,3.907056e+001
2.202345e+003,3.905581e+001
2.204274e+003,3.906149e+001
2.206202e+003,3.908838e+001
2.208131e+003,3.908422e+001
2.210059e+003,3.905346e+001
2.211988e+003,3.900881e+001
2.213916e+003,3.898456e+001
2.215845e+003,3.898344e+001
2.217773e+003,3.900764e+001
2.219702e+003,3.901418e+001
2.221630e+003,3.900233e+001
2.223559e+003,3.896526e+001
2.225487e+003,3.896606e+001
2.227416e+003,3.897396e+001
2.229344e+003,3.896948e+001
2.231273e+003,3.894657e+001
2.233201e+003,3.892035e+001
2.235130e+003,3.892017e+001
2.237058e+003,3.891026e+001
2.238987e+003,3.888807e+001
2.240915e+003,3.885744e+001
2.242844e+003,3.882536e+001
2.244772e+003,3.881882e+001
2.246701e+003,3.880297e+001
2.248629e+003,3.876208e+001
2.250558e+003,3.870315e+001
2.252486e+003,3.867104e+001
2.254415e+003,3.865628e+001
2.256343e+003,3.864527e+001
2.258272e+003,3.861956e+001
2.260200e+003,3.857001e+001
2.262129e+003,3.848664e+001
2.264057e+003,3.846237e+001
2.265986e+003,3.844415e+001
2.267914e+003,3.840791e+001
2.269843e+003,3.838650e+001
2.271771e+003,3.837616e+001
2.273700e+003,3.838907e+001
2.275628e+003,3.839039e+001
2.277557e+003,3.839359e+001
2.279485e+003,3.842117e+001
2.281414e+003,3.845881e+001
2.283342e+003,3.845351e+001
2.285271e+003,3.834741e+001
2.287199e+003,3.822190e+001
2.289128e+003,3.807961e+001
2.291056e+003,3.788579e+001
2.292985e+003,3.770385e+001
2.294913e+003,3.756696e+001
2.296842e+003,3.740304e+001
2.298770e+003,3.722131e+001
2.300699e+003,3.704288e+001
2.302627e+003,3.686118e+001
2.304556e+003,3.658972e+001
2.306484e+003,3.626720e+001
2.308413e+003,3.589844e+001
2.310341e+003,3.552994e+001
2.312270e+003,3.529647e+001
2.314198e+003,3.517134e+001
2.316127e+003,3.486102e+001
2.318055e+003,3.431975e+001
2.319984e+003,3.369962e+001
2.321912e+003,3.322831e+001
2.323841e+003,3.298337e+001
2.325769e+003,3.274319e+001
2.327698e+003,3.236346e+001
2.329626e+003,3.205909e+001
2.331555e+003,3.196642e+001
2.333483e+003,3.191801e+001
2.335412e+003,3.172185e+001
2.337340e+003,3.154361e+001
2.339269e+003,3.133555e+001
2.341197e+003,3.117988e+001
2.343126e+003,3.138453e+001
2.345054e+003,3.213577e+001
2.346983e+003,3.338272e+001
2.348911e+003,3.336918e+001
2.350840e+003,3.219196e+001
2.352768e+003,3.103471e+001
2.354697e+003,3.004855e+001
2.356625e+003,2.924971e+001
2.358554e+003,2.887774e+001
2.360482e+003,2.895628e+001
2.362411e+003,2.922004e+001
2.364339e+003,2.974312e+001
2.366268e+003,3.038310e+001
2.368196e+003,3.129007e+001
2.370125e+003,3.221823e+001
2.372053e+003,3.314116e+001
2.373982e+003,3.409239e+001
2.375910e+003,3.497642e+001
2.377839e+003,3.567411e+001
2.379767e+003,3.629873e+001
2.381696e+003,3.687843e+001
2.383624e+003,3.740022e+001
2.385553e+003,3.774702e+001
2.387481e+003,3.789678e+001
2.389410e+003,3.795149e+001
2.391338e+003,3.798935e+001
2.393267e+003,3.797461e+001
2.395195e+003,3.794677e+001
2.397124e+003,3.793594e+001
2.399052e+003,3.792962e+001
2.400981e+003,3.792061e+001
2.402909e+003,3.791403e+001
2.404838e+003,3.790672e+001
2.406766e+003,3.790376e+001
2.408695e+003,3.788364e+001
2.410623e+003,3.787414e+001
2.412552e+003,3.786451e+001
2.414480e+003,3.783497e+001
2.416409e+003,3.781864e+001
2.418337e+003,3.782855e+001
2.420266e+003,3.783557e+001
2.422194e+003,3.782884e+001
2.424123e+003,3.777711e+001
2.426051e+003,3.773832e+001
2.427980e+003,3.774475e+001
2.429908e+003,3.775083e+001
2.431837e+003,3.776643e+001
2.433765e+003,3.776983e+001
2.435694e+003,3.773817e+001
2.437622e+003,3.769932e+001
2.439551e+003,3.770428e+001
2.441479e+003,3.769863e+001
2.443408e+003,3.766554e+001
2.445336e+003,3.765012e+001
2.447265e+003,3.763664e+001
2.449193e+003,3.762034e+001
2.451122e+003,3.762233e+001
2.453050e+003,3.762326e+001
2.454979e+003,3.760052e+001
2.456907e+003,3.759312e+001
2.458836e+003,3.757164e+001
2.460764e+003,3.757411e+001
2.462693e+003,3.756390e+001
2.464621e+003,3.755448e+001
2.466550e+003,3.755827e+001
2.468478e+003,3.754708e+001
2.470406e+003,3.751434e+001
2.472335e+003,3.749759e+001
2.474264e+003,3.749643e+001
2.476192e+003,3.748248e+001
2.478121e+003,3.747143e+001
2.480049e+003,3.748101e+001
2.481978e+003,3.748615e+001
2.483906e+003,3.747305e+001
2.485834e+003,3.744474e+001
2.487763e+003,3.741510e+001
2.489692e+003,3.736909e+001
2.491620e+003,3.737536e+001
2.493549e+003,3.742078e+001
2.495477e+003,3.739896e+001
2.497406e+003,3.732706e+001
2.499334e+003,3.733491e+001
2.501262e+003,3.736513e+001
2.503191e+003,3.735368e+001
2.505120e+003,3.731837e+001
2.507048e+003,3.728486e+001
2.508977e+003,3.728175e+001
2.510905e+003,3.728400e+001
2.512833e+003,3.726677e+001
2.514762e+003,3.724766e+001
2.516690e+003,3.725447e+001
2.518619e+003,3.723405e+001
2.520548e+003,3.719473e+001
2.522476e+003,3.719761e+001
2.524405e+003,3.721263e+001
2.526333e+003,3.720374e+001
2.528261e+003,3.718441e+001
2.530190e+003,3.718279e+001
2.532119e+003,3.717604e+001
2.534047e+003,3.716671e+001
2.535976e+003,3.715657e+001
2.537904e+003,3.713777e+001
2.539833e+003,3.709711e+001
2.541761e+003,3.707600e+001
2.543689e+003,3.705412e+001
2.545618e+003,3.703154e+001
2.547547e+003,3.702977e+001
2.549475e+003,3.706346e+001
2.551404e+003,3.709763e+001
2.553332e+003,3.708323e+001
2.555260e+003,3.701315e+001
2.557189e+003,3.695948e+001
2.559117e+003,3.695632e+001
2.561046e+003,3.696402e+001
2.562975e+003,3.697248e+001
2.564903e+003,3.699276e+001
2.566832e+003,3.696155e+001
2.568760e+003,3.692548e+001
2.570688e+003,3.691531e+001
2.572617e+003,3.689229e+001
2.574545e+003,3.688557e+001
2.576474e+003,3.691668e+001
2.578403e+003,3.693030e+001
2.580331e+003,3.692657e+001
2.582260e+003,3.689896e+001
2.584188e+003,3.685502e+001
2.586116e+003,3.682690e+001
2.588045e+003,3.682656e+001
2.589973e+003,3.682702e+001
2.591902e+003,3.679503e+001
2.593831e+003,3.675513e+001
2.595759e+003,3.673089e+001
2.597688e+003,3.673112e+001
2.599616e+003,3.675194e+001
2.601544e+003,3.674673e+001
2.603473e+003,3.670347e+001
2.605401e+003,3.670609e+001
2.607330e+003,3.672212e+001
2.609259e+003,3.671549e+001
2.611187e+003,3.670874e+001
2.613115e+003,3.667724e+001
2.615044e+003,3.664680e+001
2.616972e+003,3.663324e+001
2.618901e+003,3.660266e+001
2.620830e+003,3.658318e+001
2.622758e+003,3.657411e+001
2.624687e+003,3.656117e+001
2.626615e+003,3.654047e+001
2.628543e+003,3.654801e+001
2.630472e+003,3.657000e+001
2.632400e+003,3.657143e+001
2.634329e+003,3.653433e+001
2.636258e+003,3.650929e+001
2.638186e+003,3.652161e+001
2.640115e+003,3.652257e+001
2.642043e+003,3.647897e+001
2.643971e+003,3.644106e+001
2.645900e+003,3.642755e+001
2.647828e+003,3.640634e+001
2.649757e+003,3.639788e+001
2.651686e+003,3.638409e+001
2.653614e+003,3.635463e+001
2.655542e+003,3.635674e+001
2.657471e+003,3.638029e+001
2.659399e+003,3.637607e+001
2.661328e+003,3.635008e+001
2.663256e+003,3.636045e+001
2.665185e+003,3.636370e+001
2.667114e+003,3.634278e+001
2.669042e+003,3.631966e+001
2.670970e+003,3.627652e+001
2.672899e+003,3.627119e+001
2.674827e+003,3.626328e+001
2.676756e+003,3.625504e+001
2.678684e+003,3.626225e+001
2.680613e+003,3.624841e+001
2.682542e+003,3.619532e+001
2.684470e+003,3.620876e+001
2.686398e+003,3.623801e+001
2.688327e+003,3.622651e+001
2.690255e+003,3.622249e+001
2.692184e+003,3.619793e+001
2.694112e+003,3.617288e+001
2.696041e+003,3.611785e+001
2.697969e+003,3.606597e+001
2.699898e+003,3.607121e+001
2.701826e+003,3.611164e+001
2.703755e+003,3.611585e+001
2.705683e+003,3.610904e+001
2.707612e+003,3.609220e+001
2.709540e+003,3.607559e+001
2.711469e+003,3.605937e+001
2.713397e+003,3.602334e+001
2.715326e+003,3.602387e+001
2.717254e+003,3.600607e+001
2.719183e+003,3.598493e+001
2.721111e+003,3.599551e+001
2.723040e+003,3.598133e+001
2.724969e+003,3.595240e+001
2.726897e+003,3.593312e+001
2.728825e+003,3.593657e+001
2.730754e+003,3.596890e+001
2.732682e+003,3.596744e+001
2.734611e+003,3.592192e+001
2.736539e+003,3.590993e+001
2.738468e+003,3.591301e+001
2.740396e+003,3.588363e+001
2.742325e+003,3.586620e+001
2.744253e+003,3.583356e+001
2.746182e+003,3.583346e+001
2.748110e+003,3.588234e+001
2.750039e+003,3.587994e+001
2.751967e+003,3.582086e+001
2.753896e+003,3.578119e+001
2.755824e+003,3.575272e+001
2.757753e+003,3.573360e+001
2.759681e+003,3.573053e+001
2.761610e+003,3.571722e+001
2.763538e+003,3.571620e+001
2.765467e+003,3.573313e+001
2.767395e+003,3.572646e+001
2.769324e+003,3.568908e+001
2.771252e+003,3.566317e+001
2.773181e+003,3.568967e+001
2.775109e+003,3.571203e+001
2.777038e+003,3.566829e+001
2.778966e+003,3.562720e+001
2.780895e+003,3.563142e+001
2.782823e+003,3.561252e+001
2.784752e+003,3.560043e+001
2.786680e+003,3.557368e+001
2.788609e+003,3.554496e+001
2.790537e+003,3.556324e+001
2.792466e+003,3.556056e+001
2.794394e+003,3.554354e+001
2.796323e+003,3.550602e+001
2.798251e+003,3.549683e+001
2.800180e+003,3.551173e+001
2.802108e+003,3.549659e+001
2.804037e+003,3.548535e+001
2.805965e+003,3.546312e+001
2.807894e+003,3.543227e+001
2.809822e+003,3.538696e+001
2.811751e+003,3.541493e+001
2.813679e+003,3.546914e+001
2.815608e+003,3.545699e+001
2.817536e+003,3.542312e+001
2.819465e+003,3.541547e+001
2.821393e+003,3.538643e+001
2.823322e+003,3.536079e+001
2.825250e+003,3.535184e+001
2.827179e+003,3.534571e+001
2.829107e+003,3.533178e+001
2.831036e+003,3.528317e+001
2.832964e+003,3.523917e+001
2.834893e+003,3.526790e+001
2.836821e+003,3.525973e+001
2.838750e+003,3.523468e+001
2.840678e+003,3.519685e+001
2.842607e+003,3.518245e+001
2.844535e+003,3.515481e+001
2.846464e+003,3.510828e+001
2.848392e+003,3.508458e+001
2.850321e+003,3.504338e+001
2.852249e+003,3.502810e+001
2.854178e+003,3.505029e+001
2.856106e+003,3.507347e+001
2.858035e+003,3.502170e+001
2.859963e+003,3.499482e+001
2.861892e+003,3.500407e+001
2.863820e+003,3.499364e+001
2.865749e+003,3.500844e+001
2.867677e+003,3.499552e+001
2.869606e+003,3.495350e+001
2.871534e+003,3.491953e+001
2.873463e+003,3.492192e+001
2.875391e+003,3.491776e+001
2.877320e+003,3.488697e+001
2.879248e+003,3.488099e+001
2.881177e+003,3.490480e+001
2.883105e+003,3.488443e+001
2.885034e+003,3.486625e+001
2.886962e+003,3.482352e+001
2.888891e+003,3.481993e+001
2.890819e+003,3.483271e+001
2.892748e+003,3.483483e+001
2.894676e+003,3.480619e+001
2.896605e+003,3.475408e+001
2.898533e+003,3.472102e+001
2.900462e+003,3.471671e+001
2.902390e+003,3.470514e+001
2.904319e+003,3.468588e+001
2.906247e+003,3.466580e+001
2.908176e+003,3.463710e+001
2.910104e+003,3.460960e+001
2.912033e+003,3.458515e+001
2.913961e+003,3.458455e+001
2.915890e+003,3.456565e+001
2.917818e+003,3.454743e+001
2.919747e+003,3.453229e+001
2.921675e+003,3.450025e+001
2.923604e+003,3.450820e+001
2.925532e+003,3.449889e+001
2.927461e+003,3.447668e+001
2.929389e+003,3.446933e+001
2.931318e+003,3.447257e+001
2.933246e+003,3.452086e+001
2.935175e+003,3.452003e+001
2.937103e+003,3.447364e+001
2.939032e+003,3.446401e+001
2.940960e+003,3.449140e+001
2.942889e+003,3.451390e+001
2.944817e+003,3.448951e+001
2.946746e+003,3.444990e+001
2.948674e+003,3.445570e+001
2.950603e+003,3.445748e+001
2.952531e+003,3.443326e+001
2.954460e+003,3.444939e+001
2.956388e+003,3.444473e+001
2.958317e+003,3.442477e+001
2.960245e+003,3.444637e+001
2.962174e+003,3.443672e+001
2.964102e+003,3.436211e+001
2.966031e+003,3.429431e+001
2.967959e+003,3.428439e+001
2.969888e+003,3.432826e+001
2.971816e+003,3.432450e+001
2.973745e+003,3.431710e+001
2.975673e+003,3.428488e+001
2.977602e+003,3.426177e+001
2.979530e+003,3.425526e+001
2.981459e+003,3.426620e+001
2.983387e+003,3.428393e+001
2.985316e+003,3.427864e+001
2.987244e+003,3.427872e+001
2.989173e+003,3.425697e+001
2.991101e+003,3.425227e+001
2.993030e+003,3.426350e+001
2.994958e+003,3.425517e+001
2.996887e+003,3.424070e+001
2.998815e+003,3.426318e+001
3.000744e+003,3.426715e+001
3.002672e+003,3.423692e+001
3.004601e+003,3.421175e+001
3.006529e+003,3.420156e+001
3.008458e+003,3.416019e+001
3.010386e+003,3.414169e+001
3.012315e+003,3.422736e+001
3.014243e+003,3.425338e+001
3.016172e+003,3.417521e+001
3.018100e+003,3.414085e+001
3.020029e+003,3.415893e+001
3.021957e+003,3.415202e+001
3.023886e+003,3.413229e+001
3.025814e+003,3.413487e+001
3.027743e+003,3.413221e+001
3.029671e+003,3.412160e+001
3.031600e+003,3.416975e+001
3.033528e+003,3.411845e+001
3.035457e+003,3.408387e+001
3.037385e+003,3.408339e+001
3.039314e+003,3.406721e+001
3.041242e+003,3.404048e+001
3.043171e+003,3.402096e+001
3.045099e+003,3.398165e+001
3.047028e+003,3.397636e+001
3.048956e+003,3.401808e+001
3.050885e+003,3.402198e+001
3.052813e+003,3.397880e+001
3.054742e+003,3.397020e+001
3.056670e+003,3.401051e+001
3.058599e+003,3.397467e+001
3.060527e+003,3.393748e+001
3.062456e+003,3.390494e+001
3.064384e+003,3.390949e+001
3.066313e+003,3.396338e+001
3.068241e+003,3.395918e+001
3.070170e+003,3.387280e+001
3.072098e+003,3.385092e+001
3.074027e+003,3.385560e+001
3.075955e+003,3.381699e+001
3.077884e+003,3.377618e+001
3.079812e+003,3.379099e+001
3.081741e+003,3.380749e+001
3.083669e+003,3.380095e+001
3.085598e+003,3.375215e+001
3.087526e+003,3.374134e+001
3.089455e+003,3.371188e+001
3.091383e+003,3.365714e+001
3.093312e+003,3.365167e+001
3.095240e+003,3.370459e+001
3.097169e+003,3.368594e+001
3.099097e+003,3.360129e+001
3.101026e+003,3.367775e+001
3.102954e+003,3.368915e+001
3.104883e+003,3.362503e+001
3.106811e+003,3.358064e+001
3.108740e+003,3.358765e+001
3.110668e+003,3.357285e+001
3.112597e+003,3.354329e+001
3.114525e+003,3.356699e+001
3.116454e+003,3.361197e+001
3.118382e+003,3.360483e+001
3.120311e+003,3.353534e+001
3.122239e+003,3.347031e+001
3.124167e+003,3.343773e+001
3.126096e+003,3.341470e+001
3.128025e+003,3.343683e+001
3.129953e+003,3.339266e+001
3.131882e+003,3.338503e+001
3.133810e+003,3.345278e+001
3.135739e+003,3.348199e+001
3.137667e+003,3.343855e+001
3.139595e+003,3.340285e+001
3.141524e+003,3.337158e+001
3.143453e+003,3.335336e+001
3.145381e+003,3.332430e+001
3.147310e+003,3.331734e+001
3.149238e+003,3.330322e+001
3.151167e+003,3.330040e+001
3.153095e+003,3.326186e+001
3.155023e+003,3.321893e+001
3.156952e+003,3.320867e+001
3.158881e+003,3.322295e+001
3.160809e+003,3.318809e+001
3.162738e+003,3.317786e+001
3.164666e+003,3.316760e+001
3.166594e+003,3.318254e+001
3.168523e+003,3.314288e+001
3.170452e+003,3.308708e+001
3.172380e+003,3.310947e+001
3.174309e+003,3.314981e+001
3.176237e+003,3.308084e+001
3.178166e+003,3.306435e+001
3.180094e+003,3.311106e+001
3.182022e+003,3.309419e+001
3.183951e+003,3.306133e+001
3.185880e+003,3.304777e+001
3.187808e+003,3.303052e+001
3.189737e+003,3.297197e+001
3.191665e+003,3.292316e+001
3.193594e+003,3.290288e+001
3.195522e+003,3.290351e+001
3.197450e+003,3.294398e+001
3.199379e+003,3.293588e+001
3.201308e+003,3.289193e+001
3.203236e+003,3.284000e+001
3.205165e+003,3.279929e+001
3.207093e+003,3.278020e+001
3.209021e+003,3.279175e+001
3.210950e+003,3.278792e+001
3.212878e+003,3.273447e+001
3.214807e+003,3.276304e+001
3.216736e+003,3.273192e+001
3.218664e+003,3.270061e+001
3.220593e+003,3.270045e+001
3.222521e+003,3.270676e+001
3.224449e+003,3.264504e+001
3.226378e+003,3.257409e+001
3.228306e+003,3.255857e+001
3.230235e+003,3.258115e+001
3.232164e+003,3.256536e+001
3.234092e+003,3.252785e+001
3.236021e+003,3.255986e+001
3.237949e+003,3.252095e+001
3.239877e+003,3.249158e+001
3.241806e+003,3.248129e+001
3.243734e+003,3.248333e+001
3.245663e+003,3.250179e+001
3.247592e+003,3.238326e+001
3.249520e+003,3.236642e+001
3.251448e+003,3.235339e+001
3.253377e+003,3.232329e+001
3.255305e+003,3.233035e+001
3.257234e+003,3.229657e+001
3.259162e+003,3.228521e+001
3.261091e+003,3.227921e+001
3.263020e+003,3.226411e+001
3.264948e+003,3.223177e+001
3.266876e+003,3.219577e+001
3.268805e+003,3.219734e+001
3.270733e+003,3.223539e+001
3.272662e+003,3.225241e+001
3.274591e+003,3.232555e+001
3.276519e+003,3.235668e+001
3.278448e+003,3.224087e+001
3.280376e+003,3.216526e+001
3.282304e+003,3.212578e+001
3.284233e+003,3.207774e+001
3.286161e+003,3.205383e+001
3.288090e+003,3.203152e+001
3.290019e+003,3.199526e+001
3.291947e+003,3.205717e+001
3.293875e+003,3.207744e+001
3.295804e+003,3.201048e+001
3.297732e+003,3.199619e+001
3.299661e+003,3.195514e+001
3.301589e+003,3.191731e+001
3.303518e+003,3.189773e+001
3.305447e+003,3.186626e+001
3.307375e+003,3.188373e+001
3.309303e+003,3.191497e+001
3.311232e+003,3.189749e+001
3.313160e+003,3.190628e+001
3.315089e+003,3.183674e+001
3.317017e+003,3.177645e+001
3.318946e+003,3.175725e+001
3.320875e+003,3.174340e+001
3.322803e+003,3.174436e+001
3.324731e+003,3.169263e+001
3.326660e+003,3.156906e+001
3.328588e+003,3.155505e+001
3.330517e+003,3.159090e+001
3.332445e+003,3.156848e+001
3.334374e+003,3.153395e+001
3.336302e+003,3.150356e+001
3.338231e+003,3.144592e+001
3.340159e+003,3.143168e+001
3.342088e+003,3.140190e+001
3.344016e+003,3.138584e+001
3.345945e+003,3.140727e+001
3.347873e+003,3.144131e+001
3.349802e+003,3.141423e+001
3.351730e+003,3.139695e+001
3.353659e+003,3.137020e+001
3.355587e+003,3.133711e+001
3.357516e+003,3.129820e+001
3.359444e+003,3.122984e+001
3.361373e+003,3.123365e+001
3.363302e+003,3.120308e+001
3.365230e+003,3.114474e+001
3.367158e+003,3.113457e+001
3.369087e+003,3.111760e+001
3.371015e+003,3.109151e+001
3.372944e+003,3.108938e+001
3.374872e+003,3.108572e+001
3.376801e+003,3.099053e+001
3.378729e+003,3.093866e+001
3.380658e+003,3.090854e+001
3.382586e+003,3.089558e+001
3.384515e+003,3.092149e+001
3.386443e+003,3.087404e+001
3.388372e+003,3.081311e+001
3.390300e+003,3.078041e+001
3.392229e+003,3.079067e+001
3.394157e+003,3.084490e+001
3.396086e+003,3.081981e+001
3.398014e+003,3.076406e+001
3.399943e+003,3.068225e+001
3.401871e+003,3.068779e+001
3.403800e+003,3.069997e+001
3.405728e+003,3.064093e+001
3.407657e+003,3.064688e+001
3.409585e+003,3.069098e+001
3.411514e+003,3.065071e+001
3.413442e+003,3.060172e+001
3.415371e+003,3.056211e+001
3.417299e+003,3.050527e+001
3.419228e+003,3.049681e+001
3.421156e+003,3.062247e+001
3.423085e+003,3.055825e+001
3.425013e+003,3.048975e+001
3.426942e+003,3.050671e+001
3.428870e+003,3.049160e+001
3.430799e+003,3.042350e+001
3.432727e+003,3.034228e+001
3.434656e+003,3.027330e+001
3.436584e+003,3.034921e+001
3.438513e+003,3.042978e+001
3.440441e+003,3.038295e+001
3.442370e+003,3.046500e+001
3.444298e+003,3.044957e+001
3.446227e+003,3.052333e+001
3.448155e+003,3.064785e+001
3.450084e+003,3.038599e+001
3.452012e+003,3.032129e+001
3.453941e+003,3.034304e+001
3.455869e+003,3.044584e+001
3.457798e+003,3.044189e+001
3.459726e+003,3.036165e+001
3.461655e+003,3.046126e+001
3.463583e+003,3.044972e+001
3.465512e+003,3.027056e+001
3.467440e+003,3.028142e+001
3.469369e+003,3.031258e+001
3.471297e+003,3.035623e+001
3.473226e+003,3.041133e+001
3.475154e+003,3.055047e+001
3.477083e+003,3.045238e+001
3.479011e+003,3.038448e+001
3.480940e+003,3.053418e+001
3.482868e+003,3.064891e+001
3.484797e+003,3.046583e+001
3.486725e+003,3.041860e+001
3.488654e+003,3.046308e+001
3.490582e+003,3.042354e+001
3.492511e+003,3.034958e+001
3.494439e+003,3.034342e+001
3.496368e+003,3.039241e+001
3.498296e+003,3.040153e+001
3.500225e+003,3.038889e+001
3.502153e+003,3.061566e+001
3.504082e+003,3.079842e+001
3.506010e+003,3.047963e+001
3.507939e+003,3.029043e+001
3.509867e+003,3.049712e+001
3.511796e+003,3.054144e+001
3.513724e+003,3.047775e+001
3.515653e+003,3.041436e+001
3.517581e+003,3.047878e+001
3.519510e+003,3.052996e+001
3.521438e+003,3.048914e+001
3.523367e+003,3.070439e+001
3.525295e+003,3.070314e+001
3.527224e+003,3.079414e+001
3.529152e+003,3.090212e+001
3.531081e+003,3.077755e+001
3.533009e+003,3.054901e+001
3.534938e+003,3.038566e+001
3.536866e+003,3.062404e+001
3.538795e+003,3.061668e+001
3.540723e+003,3.053624e+001
3.542652e+003,3.045423e+001
3.544580e+003,3.070866e+001
3.546509e+003,3.107810e+001
3.548437e+003,3.098061e+001
3.550366e+003,3.066145e+001
3.552294e+003,3.093994e+001
3.554223e+003,3.082195e+001
3.556151e+003,3.059479e+001
3.558080e+003,3.066850e+001
3.560008e+003,3.073003e+001
3.561937e+003,3.067249e+001
3.563865e+003,3.051608e+001
3.565794e+003,3.090194e+001
3.567722e+003,3.191499e+001
3.569651e+003,3.133129e+001
3.571579e+003,3.074406e+001
3.573508e+003,3.060802e+001
3.575436e+003,3.073871e+001
3.577365e+003,3.078793e+001
3.579293e+003,3.077501e+001
3.581222e+003,3.066553e+001
3.583150e+003,3.052987e+001
3.585079e+003,3.039872e+001
3.587007e+003,3.119228e+001
3.588936e+003,3.156891e+001
3.590864e+003,3.077164e+001
3.592793e+003,3.042357e+001
3.594721e+003,3.083414e+001
3.596650e+003,3.096762e+001
3.598578e+003,3.082007e+001
3.600507e+003,3.101444e+001
3.602435e+003,3.110930e+001
3.604364e+003,3.064389e+001
3.606292e+003,3.046265e+001
3.608221e+003,3.114832e+001
3.610149e+003,3.128392e+001
3.612078e+003,3.118354e+001
3.614006e+003,3.171544e+001
3.615935e+003,3.122079e+001
3.617863e+003,3.115913e+001
3.619792e+003,3.188709e+001
3.621720e+003,3.143483e+001
3.623649e+003,3.083352e+001
3.625577e+003,3.051147e+001
3.627506e+003,3.058828e+001
3.629434e+003,3.260359e+001
3.631363e+003,3.160709e+001
3.633291e+003,3.111688e+001
3.635220e+003,3.123735e+001
3.637148e+003,3.115298e+001
3.639077e+003,3.125513e+001
3.641005e+003,3.113105e+001
3.642934e+003,3.119826e+001
3.644862e+003,3.072754e+001
3.646791e+003,3.096096e+001
3.648719e+003,3.253521e+001
3.650648e+003,3.329964e+001
3.652576e+003,3.210736e+001
3.654505e+003,3.117479e+001
3.656433e+003,3.197657e+001
3.658362e+003,3.170805e+001
3.660290e+003,3.129817e+001
3.662219e+003,3.123049e+001
3.664147e+003,3.120494e+001
3.666076e+003,3.095888e+001
3.668004e+003,3.071011e+001
3.669933e+003,3.216212e+001
3.671861e+003,3.185945e+001
3.673790e+003,3.070678e+001
3.675718e+003,3.321564e+001
3.677647e+003,3.266219e+001
3.679575e+003,3.196011e+001
3.681504e+003,3.145695e+001
3.683432e+003,3.108360e+001
3.685361e+003,3.076048e+001
3.687289e+003,3.062281e+001
3.689218e+003,3.200339e+001
3.691146e+003,3.245298e+001
3.693075e+003,3.164022e+001
3.695003e+003,3.102602e+001
3.696932e+003,3.098305e+001
3.698860e+003,3.062263e+001
3.700789e+003,3.077389e+001
3.702717e+003,3.135334e+001
3.704646e+003,3.096120e+001
3.706574e+003,3.064346e+001
3.708503e+003,3.050809e+001
3.710431e+003,3.128252e+001
3.712360e+003,3.245952e+001
3.714288e+003,3.200931e+001
3.716217e+003,3.117045e+001
3.718145e+003,3.094412e+001
3.720074e+003,3.090905e+001
3.722002e+003,3.109067e+001
3.723931e+003,3.103061e+001
3.725859e+003,3.109644e+001
3.727788e+003,3.125331e+001
3.729716e+003,3.052159e+001
3.731645e+003,3.071294e+001
3.733573e+003,3.117120e+001
3.735502e+003,3.212050e+001
3.737430e+003,3.225649e+001
3.739359e+003,3.158028e+001
3.741287e+003,3.118714e+001
3.743216e+003,3.089585e+001
3.745144e+003,3.266517e+001
3.747073e+003,3.156826e+001
3.749001e+003,3.118903e+001
3.750930e+003,3.269032e+001
3.752858e+003,3.261122e+001
3.754787e+003,3.157378e+001
3.756715e+003,3.121375e+001
3.758644e+003,3.146036e+001
3.760572e+003,3.180342e+001
3.762500e+003,3.120649e+001
3.764429e+003,3.101244e+001
3.766358e+003,3.133468e+001
3.768286e+003,3.100551e+001
3.770215e+003,3.170782e+001
3.772143e+003,3.148094e+001
3.774072e+003,3.100627e+001
3.776000e+003,3.075322e+001
3.777928e+003,3.074484e+001
3.779857e+003,3.145257e+001
3.781786e+003,3.110405e+001
3.783714e+003,3.095855e+001
3.785643e+003,3.129977e+001
3.787571e+003,3.106988e+001
3.789500e+003,3.087745e+001
3.791428e+003,3.076826e+001
3.793356e+003,3.060194e+001
3.795285e+003,3.075507e+001
3.797214e+003,3.135634e+001
3.799142e+003,3.069117e+001
3.801071e+003,3.181637e+001
3.802999e+003,3.238182e+001
3.804927e+003,3.089809e+001
3.806856e+003,3.140011e+001
3.808785e+003,3.142740e+001
3.810713e+003,3.082561e+001
3.812642e+003,3.049668e+001
3.814570e+003,3.045368e+001
3.816499e+003,3.177437e+001
3.818427e+003,3.097329e+001
3.820355e+003,3.128811e+001
3.822284e+003,3.241433e+001
3.824213e+003,3.126664e+001
3.826141e+003,3.121842e+001
3.828070e+003,3.117983e+001
3.829998e+003,3.056614e+001
3.831927e+003,3.081486e+001
3.833855e+003,3.078682e+001
3.835783e+003,3.081577e+001
3.837712e+003,3.144095e+001
3.839641e+003,3.190582e+001
3.841569e+003,3.123823e+001
3.843498e+003,3.119232e+001
3.845426e+003,3.113136e+001
3.847354e+003,3.071200e+001
3.849283e+003,3.041183e+001
3.851211e+003,3.011035e+001
3.853140e+003,3.258033e+001
3.855069e+003,3.264328e+001
3.856997e+003,3.159968e+001
3.858926e+003,3.089608e+001
3.860854e+003,3.050389e+001
3.862782e+003,3.076787e+001
3.864711e+003,3.144942e+001
3.866639e+003,3.095651e+001
3.868568e+003,3.030145e+001
3.870497e+003,3.160018e+001
3.872425e+003,3.093545e+001
3.874354e+003,3.137061e+001
3.876282e+003,3.083540e+001
3.878210e+003,3.006986e+001
3.880139e+003,3.087461e+001
3.882067e+003,3.110673e+001
3.883996e+003,3.049130e+001
3.885925e+003,3.132536e+001
3.887853e+003,3.071296e+001
3.889781e+003,3.018980e+001
3.891710e+003,3.110767e+001
3.893638e+003,3.109328e+001
3.895567e+003,3.041144e+001
3.897495e+003,3.014350e+001
3.899424e+003,3.071472e+001
3.901353e+003,3.095813e+001
3.903281e+003,3.135023e+001
3.905209e+003,3.162798e+001
3.907138e+003,3.099018e+001
3.909066e+003,3.054038e+001
3.910995e+003,3.051283e+001
3.912924e+003,3.043376e+001
3.914852e+003,3.019566e+001
3.916781e+003,3.056271e+001
3.918709e+003,3.072540e+001
3.920637e+003,3.059519e+001
3.922566e+003,3.037929e+001
3.924494e+003,3.077666e+001
3.926423e+003,3.069388e+001
3.928352e+003,3.030258e+001
3.930280e+003,3.039238e+001
3.932208e+003,3.065843e+001
3.934137e+003,3.065444e+001
3.936065e+003,3.042055e+001
3.937994e+003,3.036965e+001
3.939922e+003,3.015893e+001
3.941851e+003,3.029653e+001
3.943780e+003,3.060132e+001
3.945708e+003,3.027541e+001
3.947636e+003,3.024079e+001
3.949565e+003,3.049989e+001
3.951493e+003,3.053399e+001
3.953422e+003,3.041494e+001
3.955350e+003,3.032223e+001
3.957279e+003,3.028801e+001
3.959208e+003,3.021414e+001
3.961136e+003,3.023213e+001
3.963064e+003,3.033073e+001
3.964993e+003,3.030742e+001
3.966921e+003,3.023924e+001
3.968850e+003,3.018238e+001
3.970778e+003,3.020305e+001
3.972707e+003,3.018032e+001
3.974635e+003,3.028235e+001
3.976564e+003,3.030070e+001
3.978492e+003,3.013541e+001
3.980421e+003,3.011764e+001
3.982349e+003,3.018662e+001
3.984278e+003,3.010597e+001
3.986206e+003,3.011055e+001
3.988135e+003,3.009062e+001
3.990063e+003,3.009287e+001
3.991992e+003,3.015156e+001
3.993920e+003,3.015830e+001
3.995849e+003,3.010902e+001
3.997777e+003,3.009792e+001
3.999706e+003,3.006613e+001
