3.991992e+002,4.293626e+001
4.011277e+002,4.189235e+001
4.030562e+002,4.098137e+001
4.049847e+002,3.887483e+001
4.069132e+002,3.509945e+001
4.088417e+002,3.287379e+001
4.107702e+002,3.262004e+001
4.126987e+002,3.234544e+001
4.146272e+002,3.216804e+001
4.165557e+002,3.184154e+001
4.184842e+002,2.949996e+001
4.204127e+002,2.566335e+001
4.223412e+002,2.443556e+001
4.242697e+002,2.271896e+001
4.261982e+002,2.110768e+001
4.281267e+002,2.000078e+001
4.300552e+002,1.970238e+001
4.319837e+002,1.898876e+001
4.339122e+002,1.838681e+001
4.358407e+002,1.783350e+001
4.377692e+002,1.729513e+001
4.396977e+002,1.698950e+001
4.416262e+002,1.627788e+001
4.435547e+002,1.562960e+001
4.454832e+002,1.623804e+001
4.474117e+002,1.759225e+001
4.493401e+002,1.805128e+001
4.512686e+002,1.817624e+001
4.531971e+002,1.824323e+001
4.551256e+002,1.764173e+001
4.570541e+002,1.656059e+001
4.589826e+002,1.577016e+001
4.609111e+002,1.498538e+001
4.628396e+002,1.383893e+001
4.647681e+002,1.345089e+001
4.666966e+002,1.321791e+001
4.686251e+002,1.280972e+001
4.705536e+002,1.290190e+001
4.724821e+002,1.348009e+001
4.744106e+002,1.348337e+001
4.763391e+002,1.366654e+001
4.782676e+002,1.385901e+001
4.801961e+002,1.413143e+001
4.821246e+002,1.477055e+001
4.840531e+002,1.589033e+001
4.859816e+002,1.634066e+001
4.879101e+002,1.653453e+001
4.898386e+002,1.664124e+001
4.917671e+002,1.659177e+001
4.936956e+002,1.600484e+001
4.956241e+002,1.610572e+001
4.975526e+002,1.656092e+001
4.994811e+002,1.707907e+001
5.014096e+002,1.769624e+001
5.033381e+002,1.809870e+001
5.052666e+002,1.870478e+001
5.071951e+002,2.005130e+001
5.091236e+002,2.163492e+001
5.110521e+002,2.300986e+001
5.129806e+002,2.381816e+001
5.149091e+002,2.467108e+001
5.168376e+002,2.601013e+001
5.187661e+002,2.771043e+001
5.206946e+002,2.903312e+001
5.226231e+002,3.060785e+001
5.245516e+002,3.233212e+001
5.264801e+002,3.435050e+001
5.284086e+002,3.587553e+001
5.303371e+002,3.755900e+001
5.322656e+002,3.953009e+001
5.341941e+002,4.161787e+001
5.361226e+002,4.333458e+001
5.380511e+002,4.469226e+001
5.399796e+002,4.667373e+001
5.419081e+002,4.874566e+001
5.438365e+002,5.006802e+001
5.457651e+002,5.176619e+001
5.476936e+002,5.366958e+001
5.496221e+002,5.524684e+001
5.515506e+002,5.660409e+001
5.534791e+002,5.802840e+001
5.554076e+002,6.046734e+001
5.573361e+002,6.281743e+001
5.592646e+002,6.437116e+001
5.611931e+002,6.658449e+001
5.631216e+002,6.948202e+001
5.650500e+002,7.174196e+001
5.669786e+002,7.365657e+001
5.689070e+002,7.631075e+001
5.708356e+002,7.892634e+001
5.727640e+002,8.067098e+001
5.746926e+002,8.197247e+001
5.766210e+002,8.412905e+001
5.785496e+002,8.641843e+001
5.804780e+002,8.828153e+001
5.824066e+002,8.988758e+001
5.843350e+002,9.257160e+001
5.862635e+002,9.517275e+001
5.881920e+002,9.618427e+001
5.901205e+002,9.739458e+001
5.920490e+002,9.962769e+001
5.939775e+002,1.000000e+002
5.959060e+002,9.852887e+001
5.978345e+002,9.776924e+001
5.997631e+002,9.792801e+001
6.016915e+002,9.682159e+001
6.036201e+002,9.454137e+001
6.055485e+002,9.321050e+001
6.074771e+002,9.224548e+001
6.094055e+002,9.052272e+001
6.113340e+002,8.834703e+001
6.132625e+002,8.672891e+001
6.151910e+002,8.516749e+001
6.171195e+002,8.245226e+001
6.190480e+002,7.942227e+001
6.209765e+002,7.729910e+001
6.229050e+002,7.494370e+001
6.248335e+002,7.223001e+001
6.267620e+002,6.949812e+001
6.286905e+002,6.704497e+001
6.306190e+002,6.431709e+001
6.325475e+002,6.139824e+001
6.344760e+002,5.817833e+001
6.364045e+002,5.486460e+001
6.383330e+002,5.110054e+001
6.402615e+002,4.716668e+001
6.421900e+002,4.327760e+001
6.441185e+002,3.963191e+001
6.460470e+002,3.625056e+001
6.479755e+002,3.328625e+001
6.499040e+002,3.123402e+001
6.518325e+002,3.075852e+001
6.537610e+002,3.155946e+001
6.556895e+002,3.278687e+001
6.576180e+002,3.363443e+001
6.595465e+002,3.400172e+001
6.614750e+002,3.351698e+001
6.634035e+002,3.215086e+001
6.653320e+002,3.034009e+001
6.672605e+002,2.764305e+001
6.691890e+002,2.408276e+001
6.711175e+002,2.250074e+001
6.730460e+002,2.029678e+001
6.749745e+002,1.819974e+001
6.769030e+002,1.696450e+001
6.788315e+002,1.646740e+001
6.807599e+002,1.629551e+001
6.826885e+002,1.641406e+001
6.846169e+002,1.655019e+001
6.865455e+002,1.662554e+001
6.884739e+002,1.637642e+001
6.904025e+002,1.606747e+001
6.923309e+002,1.581288e+001
6.942595e+002,1.583276e+001
6.961880e+002,1.607703e+001
6.981165e+002,1.667853e+001
7.000450e+002,1.735607e+001
7.019734e+002,1.824719e+001
7.039020e+002,1.922363e+001
7.058304e+002,2.040436e+001
7.077590e+002,2.159735e+001
7.096874e+002,2.270798e+001
7.116160e+002,2.356399e+001
7.135444e+002,2.403822e+001
7.154730e+002,2.404046e+001
7.174014e+002,2.398760e+001
7.193300e+002,2.413898e+001
7.212584e+002,2.485366e+001
7.231870e+002,2.625204e+001
7.251154e+002,2.828761e+001
7.270439e+002,3.058316e+001
7.289724e+002,3.286000e+001
7.309009e+002,3.508524e+001
7.328294e+002,3.747920e+001
7.347579e+002,3.989408e+001
7.366864e+002,4.211461e+001
7.386149e+002,4.432932e+001
7.405434e+002,4.655580e+001
7.424719e+002,4.863561e+001
7.444004e+002,5.032376e+001
7.463289e+002,5.214797e+001
7.482574e+002,5.420668e+001
7.501859e+002,5.608748e+001
7.521144e+002,5.771116e+001
7.540429e+002,5.974220e+001
7.559714e+002,6.195160e+001
7.578999e+002,6.356400e+001
7.598284e+002,6.481467e+001
7.617569e+002,6.672698e+001
7.636854e+002,6.883727e+001
7.656139e+002,7.031329e+001
7.675424e+002,7.135164e+001
7.694709e+002,7.319321e+001
7.713994e+002,7.531332e+001
7.733279e+002,7.664549e+001
7.752564e+002,7.776516e+001
7.771849e+002,7.987828e+001
7.791134e+002,8.201047e+001
7.810419e+002,8.308599e+001
7.829704e+002,8.414118e+001
7.848989e+002,8.629290e+001
7.868274e+002,8.800012e+001
7.887559e+002,8.845351e+001
7.906844e+002,8.869308e+001
7.926129e+002,9.003222e+001
7.945414e+002,9.087792e+001
7.964699e+002,9.030397e+001
7.983984e+002,8.987328e+001
8.003269e+002,9.034042e+001
8.022554e+002,8.997854e+001
8.041839e+002,8.858485e+001
8.061124e+002,8.747256e+001
8.080409e+002,8.699959e+001
8.099694e+002,8.570264e+001
8.118979e+002,8.378836e+001
8.138264e+002,8.232786e+001
8.157549e+002,8.133578e+001
8.176833e+002,7.968119e+001
8.196119e+002,7.772631e+001
8.215403e+002,7.613633e+001
8.234689e+002,7.475630e+001
8.253973e+002,7.278799e+001
8.273259e+002,7.070049e+001
8.292543e+002,6.913501e+001
8.311829e+002,6.776122e+001
8.331113e+002,6.593466e+001
8.350399e+002,6.412758e+001
8.369683e+002,6.259357e+001
8.388969e+002,6.112090e+001
8.408253e+002,5.943342e+001
8.427538e+002,5.760350e+001
8.446824e+002,5.594860e+001
8.466108e+002,5.463047e+001
8.485394e+002,5.327569e+001
8.504678e+002,5.178681e+001
8.523964e+002,5.033752e+001
8.543248e+002,4.900970e+001
8.562534e+002,4.762172e+001
8.581818e+002,4.628466e+001
8.601104e+002,4.512185e+001
8.620388e+002,4.399342e+001
8.639673e+002,4.255485e+001
8.658958e+002,4.118012e+001
8.678243e+002,4.018477e+001
8.697528e+002,3.911350e+001
8.716813e+002,3.785781e+001
8.736098e+002,3.665792e+001
8.755383e+002,3.564170e+001
8.774668e+002,3.461210e+001
8.793953e+002,3.347074e+001
8.813238e+002,3.234831e+001
8.832523e+002,3.129279e+001
8.851808e+002,3.035086e+001
8.871093e+002,2.938708e+001
8.890378e+002,2.838256e+001
8.909663e+002,2.747626e+001
8.928948e+002,2.656269e+001
8.948233e+002,2.569813e+001
8.967518e+002,2.487113e+001
8.986803e+002,2.400565e+001
9.006088e+002,2.320028e+001
9.025373e+002,2.241204e+001
9.044658e+002,2.156506e+001
9.063943e+002,2.079016e+001
9.083228e+002,2.010059e+001
9.102513e+002,1.939943e+001
9.121798e+002,1.866881e+001
9.141083e+002,1.800031e+001
9.160368e+002,1.729264e+001
9.179653e+002,1.667016e+001
9.198938e+002,1.610163e+001
9.218223e+002,1.554939e+001
9.237508e+002,1.502351e+001
9.256793e+002,1.451270e+001
9.276078e+002,1.394726e+001
9.295363e+002,1.343348e+001
9.314648e+002,1.304752e+001
9.333932e+002,1.264175e+001
9.353218e+002,1.220243e+001
9.372502e+002,1.183255e+001
9.391788e+002,1.163038e+001
9.411072e+002,1.147808e+001
9.430358e+002,1.134638e+001
9.449643e+002,1.121987e+001
9.468928e+002,1.109834e+001
9.488213e+002,1.106101e+001
9.507498e+002,1.101221e+001
9.526783e+002,1.095124e+001
9.546068e+002,1.086958e+001
9.565353e+002,1.076581e+001
9.584637e+002,1.069335e+001
9.603923e+002,1.069126e+001
9.623207e+002,1.075303e+001
9.642493e+002,1.072383e+001
9.661777e+002,1.065472e+001
9.681063e+002,1.065700e+001
9.700347e+002,1.060363e+001
9.719633e+002,1.052246e+001
9.738917e+002,1.041605e+001
9.758203e+002,1.031095e+001
9.777487e+002,1.027775e+001
9.796772e+002,1.023152e+001
9.816057e+002,1.019409e+001
9.835342e+002,1.020445e+001
9.854627e+002,1.011427e+001
9.873912e+002,1.007598e+001
9.893197e+002,1.004575e+001
9.912482e+002,1.000000e+001
9.931768e+002,1.003631e+001
9.951052e+002,1.007141e+001
9.970338e+002,1.002917e+001
9.989622e+002,1.007823e+001
1.000891e+003,1.014425e+001
1.002819e+003,1.018629e+001
1.004748e+003,1.013096e+001
1.006676e+003,1.006449e+001
1.008605e+003,1.002389e+001
1.010533e+003,1.007755e+001
1.012462e+003,1.013470e+001
1.014390e+003,1.015140e+001
1.016319e+003,1.016864e+001
1.018247e+003,1.023208e+001
1.020176e+003,1.024998e+001
1.022104e+003,1.034770e+001
1.024033e+003,1.037200e+001
1.025961e+003,1.041190e+001
1.027890e+003,1.045561e+001
1.029818e+003,1.048619e+001
1.031747e+003,1.055215e+001
1.033675e+003,1.062444e+001
1.035604e+003,1.063453e+001
1.037532e+003,1.073993e+001
1.039461e+003,1.088469e+001
1.041389e+003,1.102464e+001
1.043318e+003,1.108676e+001
1.045246e+003,1.113551e+001
1.047175e+003,1.119795e+001
1.049103e+003,1.129022e+001
1.051032e+003,1.144117e+001
1.052960e+003,1.162267e+001
1.054889e+003,1.184630e+001
1.056817e+003,1.204445e+001
1.058746e+003,1.215225e+001
1.060674e+003,1.225050e+001
1.062603e+003,1.238886e+001
1.064531e+003,1.258824e+001
1.066460e+003,1.276750e+001
1.068388e+003,1.288535e+001
1.070317e+003,1.295387e+001
1.072245e+003,1.309006e+001
1.074174e+003,1.322906e+001
1.076102e+003,1.334557e+001
1.078031e+003,1.336927e+001
1.079959e+003,1.332327e+001
1.081888e+003,1.329892e+001
1.083816e+003,1.316957e+001
1.085745e+003,1.306164e+001
1.087673e+003,1.308835e+001
1.089602e+003,1.310946e+001
1.091530e+003,1.308164e+001
1.093459e+003,1.311164e+001
1.095387e+003,1.328040e+001
1.097316e+003,1.344207e+001
1.099244e+003,1.358524e+001
1.101173e+003,1.383561e+001
1.103101e+003,1.412227e+001
1.105030e+003,1.430649e+001
1.106958e+003,1.451415e+001
1.108887e+003,1.474892e+001
1.110815e+003,1.504346e+001
1.112744e+003,1.532056e+001
1.114672e+003,1.550316e+001
1.116601e+003,1.564288e+001
1.118529e+003,1.584763e+001
1.120458e+003,1.607684e+001
1.122386e+003,1.630901e+001
1.124315e+003,1.657797e+001
1.126243e+003,1.683328e+001
1.128172e+003,1.698774e+001
1.130100e+003,1.711725e+001
1.132029e+003,1.726493e+001
1.133957e+003,1.743026e+001
1.135886e+003,1.761419e+001
1.137814e+003,1.785835e+001
1.139743e+003,1.806724e+001
1.141671e+003,1.826112e+001
1.143600e+003,1.839958e+001
1.145528e+003,1.856792e+001
1.147457e+003,1.875660e+001
1.149385e+003,1.891434e+001
1.151314e+003,1.907059e+001
1.153242e+003,1.928493e+001
1.155171e+003,1.950340e+001
1.157099e+003,1.965594e+001
1.159028e+003,1.982333e+001
1.160956e+003,2.003275e+001
1.162885e+003,2.023998e+001
1.164813e+003,2.043448e+001
1.166742e+003,2.066625e+001
1.168670e+003,2.088673e+001
1.170599e+003,2.101914e+001
1.172527e+003,2.120374e+001
1.174456e+003,2.141389e+001
1.176384e+003,2.147701e+001
1.178313e+003,2.166502e+001
1.180241e+003,2.209700e+001
1.182170e+003,2.235704e+001
1.184098e+003,2.254330e+001
1.186027e+003,2.271116e+001
1.187955e+003,2.285157e+001
1.189884e+003,2.296430e+001
1.191812e+003,2.312901e+001
1.193741e+003,2.333092e+001
1.195669e+003,2.352663e+001
1.197598e+003,2.372581e+001
1.199526e+003,2.389769e+001
1.201455e+003,2.406453e+001
1.203383e+003,2.424995e+001
1.205312e+003,2.442139e+001
1.207240e+003,2.457569e+001
1.209169e+003,2.469962e+001
1.211097e+003,2.489331e+001
1.213026e+003,2.503800e+001
1.214954e+003,2.515691e+001
1.216883e+003,2.529200e+001
1.218811e+003,2.544150e+001
1.220740e+003,2.553591e+001
1.222668e+003,2.562730e+001
1.224597e+003,2.576820e+001
1.226525e+003,2.594657e+001
1.228453e+003,2.606166e+001
1.230382e+003,2.611715e+001
1.232311e+003,2.620958e+001
1.234239e+003,2.638203e+001
1.236167e+003,2.654666e+001
1.238096e+003,2.663425e+001
1.240025e+003,2.670332e+001
1.241953e+003,2.686248e+001
1.243882e+003,2.704163e+001
1.245810e+003,2.711004e+001
1.247739e+003,2.716802e+001
1.249667e+003,2.727894e+001
1.251596e+003,2.739344e+001
1.253524e+003,2.747677e+001
1.255453e+003,2.762700e+001
1.257381e+003,2.775146e+001
1.259310e+003,2.783353e+001
1.261238e+003,2.791676e+001
1.263167e+003,2.798525e+001
1.265095e+003,2.810693e+001
1.267024e+003,2.822722e+001
1.268952e+003,2.830892e+001
1.270880e+003,2.846263e+001
1.272809e+003,2.860139e+001
1.274738e+003,2.867154e+001
1.276666e+003,2.873928e+001
1.278594e+003,2.879715e+001
1.280523e+003,2.887980e+001
1.282452e+003,2.894812e+001
1.284380e+003,2.900802e+001
1.286308e+003,2.911303e+001
1.288237e+003,2.928752e+001
1.290166e+003,2.937347e+001
1.292094e+003,2.939851e+001
1.294022e+003,2.946856e+001
1.295951e+003,2.961334e+001
1.297880e+003,2.970962e+001
1.299808e+003,2.973156e+001
1.301736e+003,2.975778e+001
1.303665e+003,2.984081e+001
1.305594e+003,2.995957e+001
1.307522e+003,3.001374e+001
1.309450e+003,3.001452e+001
1.311379e+003,3.011177e+001
1.313307e+003,3.031901e+001
1.315236e+003,3.030309e+001
1.317164e+003,3.033143e+001
1.319093e+003,3.055805e+001
1.321021e+003,3.067525e+001
1.322950e+003,3.059900e+001
1.324878e+003,3.059545e+001
1.326807e+003,3.068710e+001
1.328735e+003,3.077579e+001
1.330664e+003,3.079442e+001
1.332592e+003,3.084647e+001
1.334521e+003,3.090095e+001
1.336449e+003,3.097868e+001
1.338378e+003,3.116612e+001
1.340307e+003,3.141993e+001
1.342235e+003,3.134538e+001
1.344163e+003,3.131579e+001
1.346092e+003,3.128305e+001
1.348021e+003,3.129435e+001
1.349949e+003,3.147715e+001
1.351877e+003,3.159041e+001
1.353806e+003,3.162926e+001
1.355734e+003,3.170973e+001
1.357663e+003,3.169255e+001
1.359591e+003,3.169787e+001
1.361520e+003,3.187473e+001
1.363448e+003,3.223206e+001
1.365377e+003,3.205534e+001
1.367305e+003,3.196700e+001
1.369234e+003,3.205220e+001
1.371162e+003,3.197701e+001
1.373091e+003,3.215401e+001
1.375019e+003,3.267142e+001
1.376948e+003,3.246327e+001
1.378876e+003,3.231900e+001
1.380805e+003,3.224727e+001
1.382733e+003,3.223094e+001
1.384662e+003,3.211478e+001
1.386590e+003,3.238805e+001
1.388519e+003,3.279906e+001
1.390447e+003,3.264639e+001
1.392376e+003,3.245827e+001
1.394304e+003,3.274062e+001
1.396233e+003,3.304491e+001
1.398161e+003,3.295463e+001
1.400090e+003,3.312885e+001
1.402018e+003,3.268759e+001
1.403947e+003,3.268546e+001
1.405875e+003,3.302390e+001
1.407804e+003,3.283914e+001
1.409732e+003,3.270930e+001
1.411661e+003,3.280321e+001
1.413589e+003,3.276744e+001
1.415518e+003,3.269669e+001
1.417446e+003,3.280310e+001
1.419375e+003,3.365321e+001
1.421303e+003,3.339787e+001
1.423232e+003,3.314313e+001
1.425160e+003,3.327652e+001
1.427089e+003,3.293932e+001
1.429017e+003,3.314214e+001
1.430946e+003,3.342653e+001
1.432874e+003,3.325474e+001
1.434803e+003,3.305323e+001
1.436731e+003,3.388604e+001
1.438660e+003,3.383181e+001
1.440588e+003,3.339780e+001
1.442517e+003,3.340182e+001
1.444445e+003,3.341903e+001
1.446374e+003,3.347387e+001
1.448302e+003,3.387409e+001
1.450231e+003,3.375940e+001
1.452159e+003,3.369156e+001
1.454088e+003,3.349046e+001
1.456016e+003,3.366742e+001
1.457945e+003,3.551385e+001
1.459873e+003,3.476241e+001
1.461802e+003,3.390185e+001
1.463730e+003,3.380734e+001
1.465659e+003,3.441076e+001
1.467587e+003,3.410912e+001
1.469516e+003,3.368431e+001
1.471444e+003,3.381952e+001
1.473373e+003,3.513095e+001
1.475301e+003,3.483404e+001
1.477230e+003,3.465581e+001
1.479158e+003,3.419860e+001
1.481087e+003,3.421552e+001
1.483015e+003,3.428008e+001
1.484944e+003,3.410188e+001
1.486872e+003,3.426341e+001
1.488801e+003,3.471536e+001
1.490729e+003,3.538375e+001
1.492658e+003,3.469281e+001
1.494586e+003,3.407491e+001
1.496515e+003,3.466329e+001
1.498443e+003,3.520700e+001
1.500372e+003,3.502652e+001
1.502300e+003,3.455455e+001
1.504229e+003,3.391565e+001
1.506157e+003,3.477672e+001
1.508086e+003,3.745256e+001
1.510014e+003,3.584887e+001
1.511943e+003,3.509822e+001
1.513871e+003,3.467741e+001
1.515800e+003,3.490291e+001
1.517728e+003,3.572206e+001
1.519657e+003,3.500199e+001
1.521585e+003,3.634423e+001
1.523514e+003,3.626414e+001
1.525442e+003,3.576791e+001
1.527371e+003,3.588642e+001
1.529299e+003,3.553126e+001
1.531228e+003,3.504024e+001
1.533156e+003,3.582911e+001
1.535085e+003,3.607533e+001
1.537013e+003,3.489339e+001
1.538942e+003,3.515089e+001
1.540870e+003,3.800619e+001
1.542799e+003,3.708865e+001
1.544727e+003,3.674827e+001
1.546656e+003,3.604674e+001
1.548584e+003,3.545154e+001
1.550513e+003,3.591338e+001
1.552441e+003,3.562299e+001
1.554370e+003,3.592018e+001
1.556298e+003,3.564023e+001
1.558227e+003,3.614000e+001
1.560155e+003,3.862506e+001
1.562084e+003,3.666068e+001
1.564012e+003,3.603812e+001
1.565941e+003,3.599614e+001
1.567869e+003,3.549331e+001
1.569798e+003,3.646974e+001
1.571726e+003,3.628116e+001
1.573655e+003,3.538720e+001
1.575583e+003,3.584948e+001
1.577512e+003,3.699176e+001
1.579440e+003,3.616414e+001
1.581369e+003,3.578098e+001
1.583297e+003,3.573030e+001
1.585226e+003,3.573446e+001
1.587154e+003,3.569405e+001
1.589083e+003,3.566395e+001
1.591011e+003,3.565456e+001
1.592940e+003,3.565634e+001
1.594868e+003,3.577432e+001
1.596797e+003,3.572794e+001
1.598725e+003,3.552007e+001
1.600654e+003,3.552146e+001
1.602582e+003,3.561958e+001
1.604511e+003,3.552370e+001
1.606439e+003,3.538818e+001
1.608368e+003,3.560211e+001
1.610296e+003,3.558680e+001
1.612225e+003,3.527142e+001
1.614153e+003,3.481762e+001
1.616082e+003,3.536690e+001
1.618010e+003,3.627843e+001
1.619939e+003,3.536823e+001
1.621867e+003,3.503959e+001
1.623796e+003,3.588560e+001
1.625724e+003,3.547330e+001
1.627653e+003,3.535638e+001
1.629581e+003,3.537951e+001
1.631510e+003,3.487250e+001
1.633438e+003,3.440828e+001
1.635367e+003,3.532973e+001
1.637295e+003,3.645393e+001
1.639224e+003,3.544060e+001
1.641152e+003,3.504428e+001
1.643081e+003,3.462782e+001
1.645009e+003,3.438597e+001
1.646938e+003,3.607872e+001
1.648866e+003,3.600631e+001
1.650795e+003,3.439413e+001
1.652723e+003,3.517724e+001
1.654652e+003,3.712836e+001
1.656580e+003,3.562571e+001
1.658509e+003,3.488314e+001
1.660437e+003,3.458981e+001
1.662366e+003,3.515259e+001
1.664294e+003,3.552058e+001
1.666223e+003,3.468061e+001
1.668151e+003,3.459341e+001
1.670080e+003,3.569358e+001
1.672008e+003,3.550040e+001
1.673937e+003,3.488295e+001
1.675865e+003,3.569038e+001
1.677794e+003,3.522044e+001
1.679722e+003,3.510369e+001
1.681651e+003,3.477182e+001
1.683579e+003,3.534539e+001
1.685508e+003,3.698755e+001
1.687436e+003,3.574916e+001
1.689365e+003,3.559146e+001
1.691293e+003,3.544168e+001
1.693222e+003,3.472279e+001
1.695150e+003,3.503430e+001
1.697079e+003,3.625883e+001
1.699007e+003,3.560448e+001
1.700936e+003,3.695429e+001
1.702864e+003,3.596970e+001
1.704793e+003,3.568053e+001
1.706721e+003,3.612503e+001
1.708650e+003,3.563154e+001
1.710578e+003,3.555070e+001
1.712507e+003,3.530825e+001
1.714435e+003,3.547953e+001
1.716364e+003,3.604618e+001
1.718292e+003,3.725764e+001
1.720221e+003,3.641124e+001
1.722149e+003,3.571068e+001
1.724078e+003,3.588478e+001
1.726006e+003,3.582243e+001
1.727935e+003,3.562258e+001
1.729863e+003,3.586052e+001
1.731792e+003,3.574353e+001
1.733720e+003,3.672579e+001
1.735649e+003,3.737849e+001
1.737577e+003,3.611589e+001
1.739506e+003,3.645529e+001
1.741434e+003,3.662505e+001
1.743363e+003,3.664882e+001
1.745291e+003,3.657370e+001
1.747220e+003,3.654863e+001
1.749148e+003,3.704035e+001
1.751077e+003,3.733703e+001
1.753005e+003,3.701162e+001
1.754934e+003,3.630158e+001
1.756862e+003,3.676172e+001
1.758791e+003,3.665087e+001
1.760719e+003,3.644811e+001
1.762648e+003,3.703826e+001
1.764576e+003,3.667707e+001
1.766505e+003,3.638850e+001
1.768433e+003,3.669402e+001
1.770362e+003,3.643635e+001
1.772290e+003,3.751970e+001
1.774219e+003,3.758055e+001
1.776147e+003,3.695857e+001
1.778076e+003,3.652305e+001
1.780004e+003,3.674472e+001
1.781933e+003,3.697691e+001
1.783861e+003,3.670554e+001
1.785790e+003,3.686993e+001
1.787718e+003,3.664430e+001
1.789647e+003,3.640836e+001
1.791575e+003,3.705440e+001
1.793504e+003,3.770361e+001
1.795432e+003,3.723363e+001
1.797361e+003,3.695298e+001
1.799289e+003,3.685985e+001
1.801218e+003,3.729568e+001
1.803146e+003,3.720450e+001
1.805075e+003,3.694942e+001
1.807003e+003,3.681999e+001
1.808932e+003,3.686126e+001
1.810860e+003,3.716319e+001
1.812789e+003,3.730737e+001
1.814717e+003,3.697385e+001
1.816646e+003,3.697871e+001
1.818574e+003,3.705341e+001
1.820503e+003,3.706776e+001
1.822431e+003,3.691766e+001
1.824360e+003,3.716742e+001
1.826288e+003,3.737154e+001
1.828217e+003,3.705267e+001
1.830145e+003,3.785618e+001
1.832074e+003,3.767966e+001
1.834002e+003,3.724316e+001
1.835931e+003,3.726730e+001
1.837859e+003,3.736748e+001
1.839788e+003,3.720937e+001
1.841716e+003,3.686955e+001
1.843645e+003,3.743528e+001
1.845573e+003,3.801534e+001
1.847502e+003,3.765739e+001
1.849430e+003,3.752605e+001
1.851359e+003,3.733521e+001
1.853287e+003,3.729040e+001
1.855216e+003,3.723013e+001
1.857144e+003,3.725608e+001
1.859073e+003,3.736159e+001
1.861001e+003,3.743527e+001
1.862930e+003,3.736131e+001
1.864858e+003,3.717883e+001
1.866786e+003,3.730193e+001
1.868715e+003,3.816240e+001
1.870644e+003,3.807764e+001
1.872572e+003,3.746270e+001
1.874500e+003,3.735451e+001
1.876429e+003,3.732143e+001
1.878358e+003,3.729406e+001
1.880286e+003,3.725989e+001
1.882215e+003,3.725533e+001
1.884143e+003,3.732721e+001
1.886072e+003,3.722765e+001
1.888000e+003,3.707926e+001
1.889929e+003,3.753297e+001
1.891857e+003,3.736784e+001
1.893786e+003,3.715114e+001
1.895714e+003,3.728121e+001
1.897643e+003,3.714811e+001
1.899571e+003,3.707305e+001
1.901500e+003,3.706534e+001
1.903428e+003,3.705624e+001
1.905357e+003,3.701686e+001
1.907285e+003,3.706441e+001
1.909214e+003,3.728059e+001
1.911142e+003,3.726220e+001
1.913071e+003,3.704516e+001
1.914999e+003,3.686245e+001
1.916927e+003,3.688111e+001
1.918856e+003,3.726196e+001
1.920785e+003,3.700126e+001
1.922713e+003,3.723634e+001
1.924641e+003,3.719221e+001
1.926570e+003,3.686051e+001
1.928499e+003,3.678851e+001
1.930427e+003,3.678356e+001
1.932355e+003,3.676900e+001
1.934284e+003,3.674762e+001
1.936213e+003,3.670733e+001
1.938141e+003,3.669819e+001
1.940069e+003,3.654536e+001
1.941998e+003,3.677698e+001
1.943927e+003,3.701710e+001
1.945855e+003,3.680174e+001
1.947783e+003,3.673384e+001
1.949712e+003,3.659708e+001
1.951641e+003,3.655848e+001
1.953569e+003,3.652740e+001
1.955497e+003,3.657299e+001
1.957426e+003,3.652840e+001
1.959354e+003,3.656369e+001
1.961283e+003,3.657254e+001
1.963211e+003,3.651950e+001
1.965140e+003,3.646131e+001
1.967068e+003,3.667942e+001
1.968997e+003,3.668665e+001
1.970925e+003,3.654460e+001
1.972854e+003,3.652489e+001
1.974782e+003,3.654538e+001
1.976711e+003,3.658103e+001
1.978639e+003,3.657592e+001
1.980568e+003,3.654599e+001
1.982496e+003,3.654725e+001
1.984425e+003,3.655505e+001
1.986354e+003,3.658184e+001
1.988282e+003,3.665283e+001
1.990210e+003,3.658611e+001
1.992139e+003,3.678980e+001
1.994068e+003,3.679694e+001
1.995996e+003,3.656195e+001
1.997924e+003,3.658463e+001
1.999853e+003,3.663032e+001
2.001781e+003,3.661279e+001
2.003710e+003,3.654035e+001
2.005638e+003,3.655676e+001
2.007567e+003,3.659676e+001
2.009495e+003,3.661658e+001
2.011424e+003,3.657278e+001
2.013352e+003,3.653916e+001
2.015281e+003,3.651701e+001
2.017209e+003,3.666017e+001
2.019138e+003,3.661833e+001
2.021066e+003,3.652192e+001
2.022995e+003,3.654487e+001
2.024923e+003,3.656643e+001
2.026852e+003,3.651618e+001
2.028780e+003,3.648046e+001
2.030709e+003,3.644991e+001
2.032637e+003,3.644162e+001
2.034566e+003,3.640023e+001
2.036494e+003,3.639237e+001
2.038423e+003,3.634341e+001
2.040351e+003,3.637545e+001
2.042280e+003,3.635455e+001
2.044208e+003,3.629670e+001
2.046137e+003,3.629693e+001
2.048065e+003,3.632688e+001
2.049994e+003,3.631700e+001
2.051922e+003,3.626884e+001
2.053851e+003,3.623487e+001
2.055779e+003,3.626397e+001
2.057708e+003,3.627219e+001
2.059636e+003,3.627717e+001
2.061565e+003,3.625291e+001
2.063493e+003,3.625617e+001
2.065422e+003,3.634589e+001
2.067350e+003,3.628979e+001
2.069279e+003,3.619766e+001
2.071207e+003,3.625768e+001
2.073136e+003,3.630379e+001
2.075064e+003,3.629974e+001
2.076993e+003,3.628352e+001
2.078921e+003,3.632343e+001
2.080850e+003,3.631437e+001
2.082778e+003,3.630701e+001
2.084707e+003,3.633748e+001
2.086635e+003,3.638594e+001
2.088564e+003,3.638990e+001
2.090492e+003,3.641198e+001
2.092421e+003,3.641980e+001
2.094349e+003,3.644357e+001
2.096278e+003,3.643539e+001
2.098206e+003,3.646503e+001
2.100135e+003,3.647472e+001
2.102063e+003,3.648452e+001
2.103992e+003,3.649967e+001
2.105920e+003,3.645756e+001
2.107849e+003,3.643213e+001
2.109777e+003,3.644156e+001
2.111706e+003,3.649365e+001
2.113634e+003,3.655231e+001
2.115563e+003,3.651265e+001
2.117491e+003,3.645952e+001
2.119420e+003,3.646149e+001
2.121348e+003,3.647433e+001
2.123277e+003,3.646064e+001
2.125205e+003,3.649715e+001
2.127134e+003,3.650772e+001
2.129062e+003,3.650830e+001
2.130991e+003,3.651233e+001
2.132919e+003,3.651308e+001
2.134848e+003,3.649835e+001
2.136776e+003,3.649249e+001
2.138705e+003,3.644738e+001
2.140633e+003,3.645494e+001
2.142562e+003,3.646171e+001
2.144490e+003,3.644633e+001
2.146419e+003,3.639384e+001
2.148347e+003,3.641003e+001
2.150276e+003,3.641877e+001
2.152204e+003,3.640687e+001
2.154133e+003,3.640604e+001
2.156061e+003,3.643567e+001
2.157990e+003,3.643771e+001
2.159918e+003,3.639944e+001
2.161847e+003,3.634653e+001
2.163775e+003,3.633152e+001
2.165704e+003,3.640458e+001
2.167632e+003,3.642601e+001
2.169561e+003,3.634543e+001
2.171489e+003,3.632304e+001
2.173418e+003,3.637254e+001
2.175346e+003,3.640919e+001
2.177275e+003,3.634949e+001
2.179203e+003,3.633604e+001
2.181132e+003,3.635351e+001
2.183060e+003,3.637518e+001
2.184989e+003,3.637331e+001
2.186917e+003,3.635212e+001
2.188846e+003,3.631876e+001
2.190774e+003,3.634544e+001
2.192703e+003,3.631913e+001
2.194631e+003,3.631196e+001
2.196560e+003,3.631734e+001
2.198488e+003,3.631756e+001
2.200417e+003,3.631106e+001
2.202345e+003,3.630481e+001
2.204274e+003,3.627700e+001
2.206202e+003,3.628297e+001
2.208131e+003,3.628545e+001
2.210059e+003,3.628049e+001
2.211988e+003,3.626012e+001
2.213916e+003,3.623036e+001
2.215845e+003,3.618756e+001
2.217773e+003,3.616610e+001
2.219702e+003,3.621440e+001
2.221630e+003,3.626563e+001
2.223559e+003,3.624759e+001
2.225487e+003,3.618813e+001
2.227416e+003,3.618652e+001
2.229344e+003,3.621199e+001
2.231273e+003,3.615793e+001
2.233201e+003,3.608405e+001
2.235130e+003,3.606316e+001
2.237058e+003,3.613236e+001
2.238987e+003,3.615289e+001
2.240915e+003,3.610409e+001
2.242844e+003,3.608023e+001
2.244772e+003,3.606960e+001
2.246701e+003,3.605573e+001
2.248629e+003,3.606297e+001
2.250558e+003,3.606892e+001
2.252486e+003,3.603941e+001
2.254415e+003,3.598209e+001
2.256343e+003,3.595756e+001
2.258272e+003,3.592130e+001
2.260200e+003,3.590526e+001
2.262129e+003,3.588446e+001
2.264057e+003,3.584937e+001
2.265986e+003,3.582425e+001
2.267914e+003,3.582454e+001
2.269843e+003,3.581038e+001
2.271771e+003,3.579433e+001
2.273700e+003,3.580149e+001
2.275628e+003,3.585624e+001
2.277557e+003,3.584248e+001
2.279485e+003,3.577676e+001
2.281414e+003,3.580354e+001
2.283342e+003,3.578709e+001
2.285271e+003,3.570120e+001
2.287199e+003,3.565480e+001
2.289128e+003,3.559123e+001
2.291056e+003,3.545187e+001
2.292985e+003,3.536580e+001
2.294913e+003,3.529803e+001
2.296842e+003,3.514046e+001
2.298770e+003,3.501633e+001
2.300699e+003,3.489888e+001
2.302627e+003,3.477536e+001
2.304556e+003,3.464354e+001
2.306484e+003,3.442890e+001
2.308413e+003,3.419486e+001
2.310341e+003,3.394360e+001
2.312270e+003,3.370243e+001
2.314198e+003,3.361204e+001
2.316127e+003,3.349743e+001
2.318055e+003,3.311876e+001
2.319984e+003,3.263320e+001
2.321912e+003,3.242989e+001
2.323841e+003,3.240017e+001
2.325769e+003,3.214635e+001
2.327698e+003,3.179705e+001
2.329626e+003,3.173182e+001
2.331555e+003,3.179875e+001
2.333483e+003,3.174764e+001
2.335412e+003,3.149623e+001
2.337340e+003,3.129925e+001
2.339269e+003,3.120035e+001
2.341197e+003,3.114058e+001
2.343126e+003,3.135606e+001
2.345054e+003,3.204989e+001
2.346983e+003,3.284162e+001
2.348911e+003,3.242424e+001
2.350840e+003,3.146221e+001
2.352768e+003,3.090562e+001
2.354697e+003,3.045637e+001
2.356625e+003,3.000471e+001
2.358554e+003,2.961070e+001
2.360482e+003,2.961845e+001
2.362411e+003,2.985890e+001
2.364339e+003,3.032169e+001
2.366268e+003,3.080758e+001
2.368196e+003,3.145404e+001
2.370125e+003,3.212814e+001
2.372053e+003,3.278002e+001
2.373982e+003,3.335531e+001
2.375910e+003,3.387004e+001
2.377839e+003,3.428307e+001
2.379767e+003,3.469719e+001
2.381696e+003,3.500449e+001
2.383624e+003,3.525750e+001
2.385553e+003,3.541788e+001
2.387481e+003,3.551377e+001
2.389410e+003,3.556155e+001
2.391338e+003,3.553178e+001
2.393267e+003,3.549770e+001
2.395195e+003,3.552288e+001
2.397124e+003,3.548027e+001
2.399052e+003,3.546900e+001
2.400981e+003,3.548692e+001
2.402909e+003,3.550517e+001
2.404838e+003,3.548116e+001
2.406766e+003,3.543276e+001
2.408695e+003,3.539390e+001
2.410623e+003,3.542232e+001
2.412552e+003,3.542252e+001
2.414480e+003,3.536314e+001
2.416409e+003,3.536428e+001
2.418337e+003,3.540683e+001
2.420266e+003,3.540010e+001
2.422194e+003,3.535464e+001
2.424123e+003,3.529588e+001
2.426051e+003,3.533814e+001
2.427980e+003,3.529663e+001
2.429908e+003,3.528313e+001
2.431837e+003,3.533035e+001
2.433765e+003,3.533714e+001
2.435694e+003,3.528784e+001
2.437622e+003,3.527322e+001
2.439551e+003,3.527981e+001
2.441479e+003,3.528605e+001
2.443408e+003,3.525037e+001
2.445336e+003,3.518339e+001
2.447265e+003,3.514865e+001
2.449193e+003,3.519377e+001
2.451122e+003,3.517215e+001
2.453050e+003,3.514587e+001
2.454979e+003,3.518178e+001
2.456907e+003,3.519791e+001
2.458836e+003,3.517233e+001
2.460764e+003,3.512103e+001
2.462693e+003,3.510326e+001
2.464621e+003,3.512548e+001
2.466550e+003,3.512392e+001
2.468478e+003,3.510971e+001
2.470406e+003,3.511516e+001
2.472335e+003,3.513944e+001
2.474264e+003,3.513378e+001
2.476192e+003,3.508417e+001
2.478121e+003,3.504468e+001
2.480049e+003,3.504532e+001
2.481978e+003,3.506174e+001
2.483906e+003,3.502293e+001
2.485834e+003,3.499200e+001
2.487763e+003,3.497765e+001
2.489692e+003,3.496301e+001
2.491620e+003,3.495289e+001
2.493549e+003,3.491339e+001
2.495477e+003,3.488463e+001
2.497406e+003,3.487434e+001
2.499334e+003,3.490461e+001
2.501262e+003,3.493797e+001
2.503191e+003,3.493992e+001
2.505120e+003,3.488152e+001
2.507048e+003,3.487764e+001
2.508977e+003,3.489570e+001
2.510905e+003,3.488573e+001
2.512833e+003,3.488420e+001
2.514762e+003,3.492123e+001
2.516690e+003,3.490727e+001
2.518619e+003,3.486209e+001
2.520548e+003,3.482633e+001
2.522476e+003,3.481172e+001
2.524405e+003,3.482457e+001
2.526333e+003,3.482304e+001
2.528261e+003,3.484382e+001
2.530190e+003,3.482571e+001
2.532119e+003,3.475709e+001
2.534047e+003,3.472530e+001
2.535976e+003,3.471804e+001
2.537904e+003,3.475294e+001
2.539833e+003,3.474738e+001
2.541761e+003,3.474956e+001
2.543689e+003,3.477910e+001
2.545618e+003,3.479001e+001
2.547547e+003,3.477854e+001
2.549475e+003,3.473933e+001
2.551404e+003,3.467530e+001
2.553332e+003,3.465937e+001
2.555260e+003,3.465266e+001
2.557189e+003,3.462293e+001
2.559117e+003,3.463297e+001
2.561046e+003,3.465900e+001
2.562975e+003,3.462867e+001
2.564903e+003,3.462655e+001
2.566832e+003,3.460641e+001
2.568760e+003,3.458938e+001
2.570688e+003,3.455822e+001
2.572617e+003,3.451256e+001
2.574545e+003,3.448409e+001
2.576474e+003,3.452065e+001
2.578403e+003,3.453666e+001
2.580331e+003,3.448379e+001
2.582260e+003,3.446819e+001
2.584188e+003,3.449603e+001
2.586116e+003,3.445407e+001
2.588045e+003,3.439592e+001
2.589973e+003,3.438491e+001
2.591902e+003,3.439878e+001
2.593831e+003,3.439534e+001
2.595759e+003,3.435169e+001
2.597688e+003,3.426241e+001
2.599616e+003,3.432355e+001
2.601544e+003,3.436987e+001
2.603473e+003,3.434224e+001
2.605401e+003,3.432727e+001
2.607330e+003,3.428769e+001
2.609259e+003,3.425806e+001
2.611187e+003,3.423067e+001
2.613115e+003,3.422987e+001
2.615044e+003,3.426829e+001
2.616972e+003,3.428280e+001
2.618901e+003,3.427490e+001
2.620830e+003,3.423530e+001
2.622758e+003,3.419410e+001
2.624687e+003,3.415183e+001
2.626615e+003,3.419152e+001
2.628543e+003,3.423304e+001
2.630472e+003,3.420109e+001
2.632400e+003,3.413651e+001
2.634329e+003,3.413612e+001
2.636258e+003,3.410480e+001
2.638186e+003,3.406180e+001
2.640115e+003,3.404999e+001
2.642043e+003,3.403986e+001
2.643971e+003,3.399930e+001
2.645900e+003,3.398654e+001
2.647828e+003,3.398441e+001
2.649757e+003,3.396411e+001
2.651686e+003,3.396418e+001
2.653614e+003,3.396311e+001
2.655542e+003,3.396192e+001
2.657471e+003,3.393564e+001
2.659399e+003,3.395156e+001
2.661328e+003,3.397012e+001
2.663256e+003,3.393718e+001
2.665185e+003,3.390457e+001
2.667114e+003,3.389885e+001
2.669042e+003,3.390253e+001
2.670970e+003,3.386929e+001
2.672899e+003,3.381903e+001
2.674827e+003,3.379394e+001
2.676756e+003,3.381128e+001
2.678684e+003,3.383243e+001
2.680613e+003,3.379268e+001
2.682542e+003,3.375431e+001
2.684470e+003,3.377009e+001
2.686398e+003,3.371887e+001
2.688327e+003,3.369690e+001
2.690255e+003,3.374757e+001
2.692184e+003,3.372736e+001
2.694112e+003,3.366908e+001
2.696041e+003,3.364420e+001
2.697969e+003,3.363765e+001
2.699898e+003,3.358930e+001
2.701826e+003,3.358681e+001
2.703755e+003,3.365059e+001
2.705683e+003,3.365342e+001
2.707612e+003,3.365300e+001
2.709540e+003,3.364656e+001
2.711469e+003,3.363586e+001
2.713397e+003,3.360125e+001
2.715326e+003,3.355553e+001
2.717254e+003,3.356074e+001
2.719183e+003,3.354773e+001
2.721111e+003,3.355476e+001
2.723040e+003,3.357800e+001
2.724969e+003,3.349978e+001
2.726897e+003,3.348431e+001
2.728825e+003,3.340710e+001
2.730754e+003,3.339542e+001
2.732682e+003,3.342130e+001
2.734611e+003,3.338150e+001
2.736539e+003,3.338452e+001
2.738468e+003,3.344489e+001
2.740396e+003,3.341465e+001
2.742325e+003,3.335136e+001
2.744253e+003,3.334283e+001
2.746182e+003,3.338306e+001
2.748110e+003,3.337180e+001
2.750039e+003,3.332084e+001
2.751967e+003,3.332327e+001
2.753896e+003,3.330584e+001
2.755824e+003,3.324543e+001
2.757753e+003,3.324929e+001
2.759681e+003,3.327785e+001
2.761610e+003,3.330476e+001
2.763538e+003,3.328458e+001
2.765467e+003,3.320887e+001
2.767395e+003,3.312565e+001
2.769324e+003,3.309105e+001
2.771252e+003,3.310226e+001
2.773181e+003,3.317733e+001
2.775109e+003,3.317881e+001
2.777038e+003,3.317070e+001
2.778966e+003,3.321989e+001
2.780895e+003,3.320387e+001
2.782823e+003,3.311787e+001
2.784752e+003,3.309431e+001
2.786680e+003,3.305474e+001
2.788609e+003,3.300357e+001
2.790537e+003,3.299928e+001
2.792466e+003,3.302749e+001
2.794394e+003,3.303596e+001
2.796323e+003,3.299911e+001
2.798251e+003,3.298240e+001
2.800180e+003,3.301204e+001
2.802108e+003,3.300925e+001
2.804037e+003,3.299435e+001
2.805965e+003,3.294586e+001
2.807894e+003,3.290801e+001
2.809822e+003,3.290794e+001
2.811751e+003,3.285306e+001
2.813679e+003,3.281877e+001
2.815608e+003,3.287010e+001
2.817536e+003,3.289451e+001
2.819465e+003,3.289967e+001
2.821393e+003,3.281588e+001
2.823322e+003,3.276021e+001
2.825250e+003,3.276029e+001
2.827179e+003,3.274434e+001
2.829107e+003,3.276406e+001
2.831036e+003,3.276449e+001
2.832964e+003,3.274435e+001
2.834893e+003,3.271116e+001
2.836821e+003,3.263039e+001
2.838750e+003,3.263927e+001
2.840678e+003,3.264783e+001
2.842607e+003,3.262329e+001
2.844535e+003,3.257883e+001
2.846464e+003,3.253784e+001
2.848392e+003,3.253587e+001
2.850321e+003,3.248931e+001
2.852249e+003,3.239511e+001
2.854178e+003,3.237292e+001
2.856106e+003,3.240482e+001
2.858035e+003,3.241709e+001
2.859963e+003,3.239966e+001
2.861892e+003,3.243527e+001
2.863820e+003,3.243273e+001
2.865749e+003,3.240958e+001
2.867677e+003,3.232747e+001
2.869606e+003,3.227958e+001
2.871534e+003,3.231191e+001
2.873463e+003,3.234953e+001
2.875391e+003,3.232034e+001
2.877320e+003,3.227753e+001
2.879248e+003,3.222483e+001
2.881177e+003,3.223576e+001
2.883105e+003,3.221198e+001
2.885034e+003,3.216676e+001
2.886962e+003,3.214721e+001
2.888891e+003,3.214914e+001
2.890819e+003,3.214314e+001
2.892748e+003,3.210938e+001
2.894676e+003,3.210805e+001
2.896605e+003,3.214665e+001
2.898533e+003,3.206694e+001
2.900462e+003,3.198495e+001
2.902390e+003,3.198923e+001
2.904319e+003,3.202635e+001
2.906247e+003,3.204086e+001
2.908176e+003,3.196935e+001
2.910104e+003,3.193371e+001
2.912033e+003,3.192907e+001
2.913961e+003,3.193309e+001
2.915890e+003,3.191013e+001
2.917818e+003,3.181253e+001
2.919747e+003,3.177385e+001
2.921675e+003,3.175120e+001
2.923604e+003,3.177271e+001
2.925532e+003,3.177957e+001
2.927461e+003,3.172911e+001
2.929389e+003,3.167723e+001
2.931318e+003,3.168796e+001
2.933246e+003,3.171106e+001
2.935175e+003,3.172710e+001
2.937103e+003,3.171899e+001
2.939032e+003,3.167579e+001
2.940960e+003,3.166319e+001
2.942889e+003,3.169151e+001
2.944817e+003,3.168411e+001
2.946746e+003,3.162008e+001
2.948674e+003,3.152221e+001
2.950603e+003,3.156273e+001
2.952531e+003,3.162207e+001
2.954460e+003,3.159978e+001
2.956388e+003,3.153942e+001
2.958317e+003,3.150434e+001
2.960245e+003,3.146093e+001
2.962174e+003,3.144348e+001
2.964102e+003,3.145449e+001
2.966031e+003,3.149327e+001
2.967959e+003,3.149937e+001
2.969888e+003,3.146527e+001
2.971816e+003,3.145414e+001
2.973745e+003,3.145367e+001
2.975673e+003,3.142076e+001
2.977602e+003,3.135685e+001
2.979530e+003,3.130916e+001
2.981459e+003,3.132754e+001
2.983387e+003,3.132830e+001
2.985316e+003,3.135979e+001
2.987244e+003,3.132152e+001
2.989173e+003,3.131709e+001
2.991101e+003,3.126108e+001
2.993030e+003,3.122696e+001
2.994958e+003,3.124521e+001
2.996887e+003,3.123241e+001
2.998815e+003,3.119363e+001
3.000744e+003,3.120117e+001
3.002672e+003,3.121866e+001
3.004601e+003,3.121934e+001
3.006529e+003,3.114519e+001
3.008458e+003,3.113914e+001
3.010386e+003,3.116384e+001
3.012315e+003,3.116764e+001
3.014243e+003,3.109501e+001
3.016172e+003,3.102009e+001
3.018100e+003,3.101951e+001
3.020029e+003,3.099549e+001
3.021957e+003,3.102781e+001
3.023886e+003,3.109792e+001
3.025814e+003,3.106857e+001
3.027743e+003,3.097408e+001
3.029671e+003,3.097091e+001
3.031600e+003,3.102917e+001
3.033528e+003,3.097373e+001
3.035457e+003,3.093755e+001
3.037385e+003,3.091041e+001
3.039314e+003,3.088429e+001
3.041242e+003,3.081885e+001
3.043171e+003,3.075191e+001
3.045099e+003,3.075676e+001
3.047028e+003,3.079419e+001
3.048956e+003,3.081150e+001
3.050885e+003,3.078905e+001
3.052813e+003,3.071225e+001
3.054742e+003,3.063662e+001
3.056670e+003,3.068827e+001
3.058599e+003,3.073324e+001
3.060527e+003,3.068050e+001
3.062456e+003,3.054959e+001
3.064384e+003,3.048437e+001
3.066313e+003,3.050873e+001
3.068241e+003,3.051872e+001
3.070170e+003,3.047202e+001
3.072098e+003,3.043778e+001
3.074027e+003,3.045626e+001
3.075955e+003,3.048942e+001
3.077884e+003,3.048777e+001
3.079812e+003,3.043363e+001
3.081741e+003,3.037233e+001
3.083669e+003,3.034452e+001
3.085598e+003,3.029292e+001
3.087526e+003,3.028374e+001
3.089455e+003,3.025215e+001
3.091383e+003,3.025922e+001
3.093312e+003,3.025591e+001
3.095240e+003,3.025184e+001
3.097169e+003,3.020250e+001
3.099097e+003,3.012053e+001
3.101026e+003,3.020693e+001
3.102954e+003,3.025491e+001
3.104883e+003,3.013993e+001
3.106811e+003,3.004691e+001
3.108740e+003,3.007517e+001
3.110668e+003,3.006378e+001
3.112597e+003,2.996674e+001
3.114525e+003,2.994286e+001
3.116454e+003,2.996856e+001
3.118382e+003,2.996991e+001
3.120311e+003,2.998310e+001
3.122239e+003,2.999547e+001
3.124167e+003,2.995302e+001
3.126096e+003,2.988430e+001
3.128025e+003,2.987679e+001
3.129953e+003,2.978058e+001
3.131882e+003,2.972543e+001
3.133810e+003,2.974802e+001
3.135739e+003,2.970956e+001
3.137667e+003,2.967047e+001
3.139595e+003,2.965926e+001
3.141524e+003,2.961746e+001
3.143453e+003,2.958511e+001
3.145381e+003,2.956804e+001
3.147310e+003,2.957784e+001
3.149238e+003,2.963068e+001
3.151167e+003,2.962936e+001
3.153095e+003,2.956059e+001
3.155023e+003,2.951793e+001
3.156952e+003,2.949507e+001
3.158881e+003,2.945087e+001
3.160809e+003,2.941312e+001
3.162738e+003,2.938826e+001
3.164666e+003,2.935854e+001
3.166594e+003,2.929497e+001
3.168523e+003,2.932541e+001
3.170452e+003,2.927323e+001
3.172380e+003,2.910845e+001
3.174309e+003,2.902160e+001
3.176237e+003,2.909303e+001
3.178166e+003,2.919715e+001
3.180094e+003,2.918015e+001
3.182022e+003,2.906448e+001
3.183951e+003,2.898652e+001
3.185880e+003,2.900053e+001
3.187808e+003,2.893409e+001
3.189737e+003,2.883815e+001
3.191665e+003,2.880187e+001
3.193594e+003,2.883084e+001
3.195522e+003,2.879433e+001
3.197450e+003,2.883878e+001
3.199379e+003,2.880481e+001
3.201308e+003,2.871673e+001
3.203236e+003,2.864141e+001
3.205165e+003,2.862890e+001
3.207093e+003,2.864432e+001
3.209021e+003,2.863363e+001
3.210950e+003,2.860373e+001
3.212878e+003,2.858156e+001
3.214807e+003,2.855783e+001
3.216736e+003,2.841179e+001
3.218664e+003,2.838896e+001
3.220593e+003,2.845385e+001
3.222521e+003,2.845517e+001
3.224449e+003,2.844970e+001
3.226378e+003,2.840035e+001
3.228306e+003,2.833650e+001
3.230235e+003,2.824950e+001
3.232164e+003,2.821969e+001
3.234092e+003,2.827037e+001
3.236021e+003,2.838150e+001
3.237949e+003,2.834519e+001
3.239877e+003,2.816841e+001
3.241806e+003,2.814375e+001
3.243734e+003,2.815306e+001
3.245663e+003,2.816469e+001
3.247592e+003,2.804031e+001
3.249520e+003,2.796616e+001
3.251448e+003,2.797583e+001
3.253377e+003,2.800480e+001
3.255305e+003,2.801960e+001
3.257234e+003,2.799769e+001
3.259162e+003,2.796289e+001
3.261091e+003,2.786741e+001
3.263020e+003,2.783110e+001
3.264948e+003,2.785668e+001
3.266876e+003,2.785989e+001
3.268805e+003,2.782626e+001
3.270733e+003,2.781828e+001
3.272662e+003,2.778171e+001
3.274591e+003,2.779156e+001
3.276519e+003,2.781045e+001
3.278448e+003,2.771565e+001
3.280376e+003,2.764632e+001
3.282304e+003,2.764245e+001
3.284233e+003,2.761811e+001
3.286161e+003,2.753956e+001
3.288090e+003,2.748608e+001
3.290019e+003,2.747807e+001
3.291947e+003,2.750630e+001
3.293875e+003,2.755257e+001
3.295804e+003,2.746999e+001
3.297732e+003,2.741857e+001
3.299661e+003,2.747287e+001
3.301589e+003,2.744183e+001
3.303518e+003,2.738526e+001
3.305447e+003,2.732375e+001
3.307375e+003,2.729393e+001
3.309303e+003,2.733545e+001
3.311232e+003,2.728491e+001
3.313160e+003,2.728060e+001
3.315089e+003,2.724328e+001
3.317017e+003,2.724729e+001
3.318946e+003,2.719050e+001
3.320875e+003,2.702620e+001
3.322803e+003,2.702619e+001
3.324731e+003,2.711694e+001
3.326660e+003,2.711478e+001
3.328588e+003,2.701970e+001
3.330517e+003,2.691163e+001
3.332445e+003,2.683743e+001
3.334374e+003,2.688423e+001
3.336302e+003,2.698355e+001
3.338231e+003,2.692325e+001
3.340159e+003,2.682325e+001
3.342088e+003,2.684070e+001
3.344016e+003,2.683451e+001
3.345945e+003,2.680670e+001
3.347873e+003,2.677589e+001
3.349802e+003,2.671406e+001
3.351730e+003,2.659010e+001
3.353659e+003,2.647924e+001
3.355587e+003,2.647550e+001
3.357516e+003,2.649454e+001
3.359444e+003,2.637187e+001
3.361373e+003,2.640268e+001
3.363302e+003,2.640337e+001
3.365230e+003,2.636337e+001
3.367158e+003,2.632756e+001
3.369087e+003,2.627880e+001
3.371015e+003,2.625345e+001
3.372944e+003,2.610594e+001
3.374872e+003,2.603808e+001
3.376801e+003,2.609417e+001
3.378729e+003,2.617080e+001
3.380658e+003,2.611828e+001
3.382586e+003,2.595424e+001
3.384515e+003,2.596000e+001
3.386443e+003,2.600636e+001
3.388372e+003,2.602103e+001
3.390300e+003,2.596193e+001
3.392229e+003,2.593326e+001
3.394157e+003,2.591618e+001
3.396086e+003,2.585080e+001
3.398014e+003,2.594712e+001
3.399943e+003,2.593923e+001
3.401871e+003,2.587224e+001
3.403800e+003,2.574188e+001
3.405728e+003,2.564874e+001
3.407657e+003,2.569885e+001
3.409585e+003,2.578213e+001
3.411514e+003,2.564416e+001
3.413442e+003,2.550494e+001
3.415371e+003,2.549938e+001
3.417299e+003,2.555968e+001
3.419228e+003,2.560875e+001
3.421156e+003,2.571557e+001
3.423085e+003,2.562652e+001
3.425013e+003,2.556034e+001
3.426942e+003,2.559188e+001
3.428870e+003,2.547164e+001
3.430799e+003,2.537144e+001
3.432727e+003,2.537017e+001
3.434656e+003,2.539195e+001
3.436584e+003,2.542226e+001
3.438513e+003,2.534532e+001
3.440441e+003,2.530997e+001
3.442370e+003,2.544522e+001
3.444298e+003,2.537762e+001
3.446227e+003,2.546156e+001
3.448155e+003,2.563630e+001
3.450084e+003,2.531285e+001
3.452012e+003,2.520010e+001
3.453941e+003,2.522581e+001
3.455869e+003,2.525608e+001
3.457798e+003,2.523065e+001
3.459726e+003,2.528158e+001
3.461655e+003,2.535782e+001
3.463583e+003,2.534649e+001
3.465512e+003,2.539942e+001
3.467440e+003,2.551708e+001
3.469369e+003,2.543128e+001
3.471297e+003,2.535205e+001
3.473226e+003,2.530299e+001
3.475154e+003,2.537673e+001
3.477083e+003,2.534125e+001
3.479011e+003,2.526767e+001
3.480940e+003,2.543675e+001
3.482868e+003,2.562782e+001
3.484797e+003,2.538262e+001
3.486725e+003,2.538102e+001
3.488654e+003,2.546134e+001
3.490582e+003,2.536980e+001
3.492511e+003,2.530551e+001
3.494439e+003,2.532308e+001
3.496368e+003,2.540104e+001
3.498296e+003,2.536742e+001
3.500225e+003,2.526126e+001
3.502153e+003,2.545290e+001
3.504082e+003,2.566032e+001
3.506010e+003,2.544704e+001
3.507939e+003,2.529472e+001
3.509867e+003,2.567210e+001
3.511796e+003,2.574489e+001
3.513724e+003,2.550461e+001
3.515653e+003,2.540563e+001
3.517581e+003,2.548167e+001
3.519510e+003,2.541634e+001
3.521438e+003,2.535784e+001
3.523367e+003,2.571359e+001
3.525295e+003,2.570377e+001
3.527224e+003,2.568951e+001
3.529152e+003,2.591169e+001
3.531081e+003,2.583525e+001
3.533009e+003,2.556275e+001
3.534938e+003,2.538400e+001
3.536866e+003,2.560010e+001
3.538795e+003,2.550489e+001
3.540723e+003,2.521924e+001
3.542652e+003,2.509644e+001
3.544580e+003,2.553691e+001
3.546509e+003,2.605029e+001
3.548437e+003,2.590170e+001
3.550366e+003,2.538306e+001
3.552294e+003,2.571489e+001
3.554223e+003,2.578038e+001
3.556151e+003,2.563706e+001
3.558080e+003,2.562781e+001
3.560008e+003,2.570574e+001
3.561937e+003,2.556710e+001
3.563865e+003,2.515001e+001
3.565794e+003,2.564549e+001
3.567722e+003,2.709944e+001
3.569651e+003,2.646002e+001
3.571579e+003,2.574426e+001
3.573508e+003,2.561400e+001
3.575436e+003,2.579965e+001
3.577365e+003,2.576506e+001
3.579293e+003,2.577805e+001
3.581222e+003,2.576342e+001
3.583150e+003,2.559282e+001
3.585079e+003,2.519525e+001
3.587007e+003,2.618616e+001
3.588936e+003,2.672101e+001
3.590864e+003,2.580783e+001
3.592793e+003,2.559772e+001
3.594721e+003,2.603868e+001
3.596650e+003,2.599866e+001
3.598578e+003,2.578846e+001
3.600507e+003,2.618513e+001
3.602435e+003,2.625760e+001
3.604364e+003,2.574362e+001
3.606292e+003,2.557096e+001
3.608221e+003,2.629226e+001
3.610149e+003,2.621145e+001
3.612078e+003,2.605479e+001
3.614006e+003,2.671108e+001
3.615935e+003,2.605602e+001
3.617863e+003,2.595621e+001
3.619792e+003,2.709216e+001
3.621720e+003,2.673735e+001
3.623649e+003,2.584162e+001
3.625577e+003,2.531028e+001
3.627506e+003,2.545719e+001
3.629434e+003,2.800928e+001
3.631363e+003,2.684191e+001
3.633291e+003,2.640187e+001
3.635220e+003,2.654347e+001
3.637148e+003,2.635164e+001
3.639077e+003,2.645707e+001
3.641005e+003,2.633270e+001
3.642934e+003,2.635050e+001
3.644862e+003,2.565790e+001
3.646791e+003,2.562526e+001
3.648719e+003,2.717487e+001
3.650648e+003,2.845496e+001
3.652576e+003,2.704012e+001
3.654505e+003,2.596976e+001
3.656433e+003,2.705468e+001
3.658362e+003,2.683567e+001
3.660290e+003,2.636111e+001
3.662219e+003,2.636892e+001
3.664147e+003,2.638103e+001
3.666076e+003,2.590536e+001
3.668004e+003,2.557800e+001
3.669933e+003,2.754899e+001
3.671861e+003,2.705077e+001
3.673790e+003,2.574488e+001
3.675718e+003,2.866161e+001
3.677647e+003,2.767497e+001
3.679575e+003,2.708837e+001
3.681504e+003,2.668137e+001
3.683432e+003,2.635895e+001
3.685361e+003,2.593583e+001
3.687289e+003,2.591801e+001
3.689218e+003,2.733656e+001
3.691146e+003,2.744382e+001
3.693075e+003,2.695462e+001
3.695003e+003,2.661321e+001
3.696932e+003,2.660380e+001
3.698860e+003,2.608479e+001
3.700789e+003,2.636204e+001
3.702717e+003,2.708208e+001
3.704646e+003,2.651035e+001
3.706574e+003,2.599442e+001
3.708503e+003,2.588308e+001
3.710431e+003,2.690831e+001
3.712360e+003,2.833017e+001
3.714288e+003,2.759701e+001
3.716217e+003,2.650640e+001
3.718145e+003,2.639441e+001
3.720074e+003,2.641469e+001
3.722002e+003,2.669252e+001
3.723931e+003,2.686395e+001
3.725859e+003,2.699920e+001
3.727788e+003,2.691745e+001
3.729716e+003,2.593552e+001
3.731645e+003,2.616991e+001
3.733573e+003,2.660364e+001
3.735502e+003,2.768013e+001
3.737430e+003,2.786183e+001
3.739359e+003,2.717525e+001
3.741287e+003,2.634149e+001
3.743216e+003,2.596004e+001
3.745144e+003,2.892302e+001
3.747073e+003,2.778426e+001
3.749001e+003,2.727770e+001
3.750930e+003,2.880109e+001
3.752858e+003,2.913825e+001
3.754787e+003,2.769972e+001
3.756715e+003,2.718404e+001
3.758644e+003,2.771638e+001
3.760572e+003,2.823448e+001
3.762500e+003,2.717961e+001
3.764429e+003,2.697520e+001
3.766358e+003,2.748563e+001
3.768286e+003,2.715144e+001
3.770215e+003,2.806592e+001
3.772143e+003,2.764110e+001
3.774072e+003,2.705749e+001
3.776000e+003,2.685819e+001
3.777928e+003,2.689522e+001
3.779857e+003,2.776873e+001
3.781786e+003,2.726836e+001
3.783714e+003,2.721958e+001
3.785643e+003,2.774218e+001
3.787571e+003,2.736151e+001
3.789500e+003,2.719822e+001
3.791428e+003,2.726495e+001
3.793356e+003,2.694198e+001
3.795285e+003,2.707799e+001
3.797214e+003,2.782734e+001
3.799142e+003,2.661653e+001
3.801071e+003,2.787206e+001
3.802999e+003,2.851228e+001
3.804927e+003,2.678279e+001
3.806856e+003,2.788395e+001
3.808785e+003,2.811838e+001
3.810713e+003,2.731721e+001
3.812642e+003,2.660863e+001
3.814570e+003,2.649344e+001
3.816499e+003,2.831685e+001
3.818427e+003,2.704008e+001
3.820355e+003,2.783654e+001
3.822284e+003,2.916876e+001
3.824213e+003,2.734765e+001
3.826141e+003,2.753681e+001
3.828070e+003,2.759437e+001
3.829998e+003,2.686161e+001
3.831927e+003,2.723029e+001
3.833855e+003,2.697390e+001
3.835783e+003,2.687082e+001
3.837712e+003,2.767948e+001
3.839641e+003,2.853782e+001
3.841569e+003,2.788070e+001
3.843498e+003,2.775547e+001
3.845426e+003,2.758601e+001
3.847354e+003,2.689750e+001
3.849283e+003,2.649660e+001
3.851211e+003,2.595378e+001
3.853140e+003,2.891157e+001
3.855069e+003,2.918438e+001
3.856997e+003,2.815327e+001
3.858926e+003,2.722704e+001
3.860854e+003,2.668110e+001
3.862782e+003,2.697016e+001
3.864711e+003,2.800104e+001
3.866639e+003,2.709657e+001
3.868568e+003,2.645918e+001
3.870497e+003,2.854643e+001
3.872425e+003,2.735720e+001
3.874354e+003,2.786237e+001
3.876282e+003,2.724850e+001
3.878210e+003,2.622419e+001
3.880139e+003,2.700290e+001
3.882067e+003,2.731977e+001
3.883996e+003,2.676484e+001
3.885925e+003,2.801746e+001
3.887853e+003,2.692419e+001
3.889781e+003,2.618316e+001
3.891710e+003,2.738822e+001
3.893638e+003,2.737360e+001
3.895567e+003,2.659463e+001
3.897495e+003,2.622250e+001
3.899424e+003,2.681272e+001
3.901353e+003,2.703489e+001
3.903281e+003,2.746807e+001
3.905209e+003,2.807517e+001
3.907138e+003,2.731706e+001
3.909066e+003,2.688025e+001
3.910995e+003,2.686686e+001
3.912924e+003,2.678270e+001
3.914852e+003,2.648151e+001
3.916781e+003,2.697902e+001
3.918709e+003,2.715802e+001
3.920637e+003,2.707806e+001
3.922566e+003,2.675735e+001
3.924494e+003,2.724968e+001
3.926423e+003,2.701165e+001
3.928352e+003,2.646261e+001
3.930280e+003,2.659427e+001
3.932208e+003,2.706540e+001
3.934137e+003,2.709123e+001
3.936065e+003,2.664576e+001
3.937994e+003,2.672326e+001
3.939922e+003,2.644913e+001
3.941851e+003,2.662197e+001
3.943780e+003,2.703128e+001
3.945708e+003,2.650102e+001
3.947636e+003,2.638895e+001
3.949565e+003,2.683072e+001
3.951493e+003,2.678646e+001
3.953422e+003,2.663643e+001
3.955350e+003,2.662409e+001
3.957279e+003,2.670752e+001
3.959208e+003,2.668172e+001
3.961136e+003,2.682614e+001
3.963064e+003,2.694389e+001
3.964993e+003,2.671405e+001
3.966921e+003,2.660992e+001
3.968850e+003,2.665484e+001
3.970778e+003,2.657752e+001
3.972707e+003,2.666629e+001
3.974635e+003,2.678558e+001
3.976564e+003,2.664277e+001
3.978492e+003,2.650134e+001
3.980421e+003,2.657573e+001
3.982349e+003,2.651546e+001
3.984278e+003,2.653847e+001
3.986206e+003,2.659648e+001
3.988135e+003,2.642494e+001
3.990063e+003,2.642538e+001
3.991992e+003,2.652086e+001
3.993920e+003,2.660712e+001
3.995849e+003,2.666693e+001
3.997777e+003,2.660197e+001
3.999706e+003,2.649423e+001
