3.991992e+002,6.351656e+001
4.011277e+002,5.775197e+001
4.030562e+002,5.382750e+001
4.049847e+002,5.126246e+001
4.069132e+002,4.856277e+001
4.088417e+002,4.444948e+001
4.107702e+002,4.139672e+001
4.126987e+002,4.051479e+001
4.146272e+002,4.015845e+001
4.165557e+002,3.925751e+001
4.184842e+002,3.849381e+001
4.204127e+002,3.402768e+001
4.223412e+002,3.056143e+001
4.242697e+002,2.691590e+001
4.261982e+002,2.504708e+001
4.281267e+002,2.423970e+001
4.300552e+002,2.289483e+001
4.319837e+002,2.138207e+001
4.339122e+002,2.050685e+001
4.358407e+002,1.953322e+001
4.377692e+002,1.899471e+001
4.396977e+002,1.991505e+001
4.416262e+002,1.999702e+001
4.435547e+002,1.975988e+001
4.454832e+002,2.008537e+001
4.474117e+002,2.065131e+001
4.493401e+002,2.101081e+001
4.512686e+002,2.048737e+001
4.531971e+002,2.013176e+001
4.551256e+002,2.013488e+001
4.570541e+002,2.015104e+001
4.589826e+002,1.923646e+001
4.609111e+002,1.757803e+001
4.628396e+002,1.605997e+001
4.647681e+002,1.570813e+001
4.666966e+002,1.578816e+001
4.686251e+002,1.589583e+001
4.705536e+002,1.536601e+001
4.724821e+002,1.512172e+001
4.744106e+002,1.508610e+001
4.763391e+002,1.561266e+001
4.782676e+002,1.651688e+001
4.801961e+002,1.711153e+001
4.821246e+002,1.753337e+001
4.840531e+002,1.817956e+001
4.859816e+002,1.903471e+001
4.879101e+002,1.884389e+001
4.898386e+002,1.816787e+001
4.917671e+002,1.801207e+001
4.936956e+002,1.737042e+001
4.956241e+002,1.679958e+001
4.975526e+002,1.725349e+001
4.994811e+002,1.807586e+001
5.014096e+002,1.853379e+001
5.033381e+002,1.912551e+001
5.052666e+002,1.956101e+001
5.071951e+002,2.092370e+001
5.091236e+002,2.244862e+001
5.110521e+002,2.408792e+001
5.129806e+002,2.592852e+001
5.149091e+002,2.753297e+001
5.168376e+002,2.903635e+001
5.187661e+002,3.051068e+001
5.206946e+002,3.222239e+001
5.226231e+002,3.416684e+001
5.245516e+002,3.587060e+001
5.264801e+002,3.798299e+001
5.284086e+002,3.966445e+001
5.303371e+002,4.123648e+001
5.322656e+002,4.302671e+001
5.341941e+002,4.491283e+001
5.361226e+002,4.686163e+001
5.380511e+002,4.891210e+001
5.399796e+002,5.056178e+001
5.419081e+002,5.240189e+001
5.438365e+002,5.424962e+001
5.457651e+002,5.643931e+001
5.476936e+002,5.837184e+001
5.496221e+002,5.990436e+001
5.515506e+002,6.126950e+001
5.534791e+002,6.315992e+001
5.554076e+002,6.504047e+001
5.573361e+002,6.668711e+001
5.592646e+002,6.863249e+001
5.611931e+002,7.094032e+001
5.631216e+002,7.295187e+001
5.650500e+002,7.511546e+001
5.669786e+002,7.756229e+001
5.689070e+002,7.999852e+001
5.708356e+002,8.208379e+001
5.727640e+002,8.379098e+001
5.746926e+002,8.555519e+001
5.766210e+002,8.783949e+001
5.785496e+002,8.999404e+001
5.804780e+002,9.219760e+001
5.824066e+002,9.396737e+001
5.843350e+002,9.552937e+001
5.862635e+002,9.710256e+001
5.881920e+002,9.842894e+001
5.901205e+002,9.942778e+001
5.920490e+002,1.000000e+002
5.939775e+002,9.975050e+001
5.959060e+002,9.949419e+001
5.978345e+002,9.910252e+001
5.997631e+002,9.829420e+001
6.016915e+002,9.743143e+001
6.036201e+002,9.684218e+001
6.055485e+002,9.598293e+001
6.074771e+002,9.474880e+001
6.094055e+002,9.365530e+001
6.113340e+002,9.227627e+001
6.132625e+002,9.040754e+001
6.151910e+002,8.795094e+001
6.171195e+002,8.512240e+001
6.190480e+002,8.306714e+001
6.209765e+002,8.109249e+001
6.229050e+002,7.843719e+001
6.248335e+002,7.598592e+001
6.267620e+002,7.354623e+001
6.286905e+002,7.115178e+001
6.306190e+002,6.856976e+001
6.325475e+002,6.583582e+001
6.344760e+002,6.278545e+001
6.364045e+002,5.939453e+001
6.383330e+002,5.570250e+001
6.402615e+002,5.171692e+001
6.421900e+002,4.733784e+001
6.441185e+002,4.297457e+001
6.460470e+002,3.898266e+001
6.479755e+002,3.545142e+001
6.499040e+002,3.299595e+001
6.518325e+002,3.219394e+001
6.537610e+002,3.275803e+001
6.556895e+002,3.413250e+001
6.576180e+002,3.547724e+001
6.595465e+002,3.632868e+001
6.614750e+002,3.615822e+001
6.634035e+002,3.511913e+001
6.653320e+002,3.327893e+001
6.672605e+002,3.009697e+001
6.691890e+002,2.572413e+001
6.711175e+002,2.429602e+001
6.730460e+002,2.210072e+001
6.749745e+002,1.974112e+001
6.769030e+002,1.803501e+001
6.788315e+002,1.712372e+001
6.807599e+002,1.677644e+001
6.826885e+002,1.686169e+001
6.846169e+002,1.701636e+001
6.865455e+002,1.721525e+001
6.884739e+002,1.686514e+001
6.904025e+002,1.652459e+001
6.923309e+002,1.644382e+001
6.942595e+002,1.648119e+001
6.961880e+002,1.669249e+001
6.981165e+002,1.724889e+001
7.000450e+002,1.791171e+001
7.019734e+002,1.889764e+001
7.039020e+002,2.011961e+001
7.058304e+002,2.149323e+001
7.077590e+002,2.285383e+001
7.096874e+002,2.416419e+001
7.116160e+002,2.515833e+001
7.135444e+002,2.575697e+001
7.154730e+002,2.589632e+001
7.174014e+002,2.563343e+001
7.193300e+002,2.533321e+001
7.212584e+002,2.582420e+001
7.231870e+002,2.707342e+001
7.251154e+002,2.868831e+001
7.270439e+002,3.045593e+001
7.289724e+002,3.236357e+001
7.309009e+002,3.428668e+001
7.328294e+002,3.603568e+001
7.347579e+002,3.785139e+001
7.366864e+002,3.955431e+001
7.386149e+002,4.126580e+001
7.405434e+002,4.295713e+001
7.424719e+002,4.453872e+001
7.444004e+002,4.603037e+001
7.463289e+002,4.742821e+001
7.482574e+002,4.874725e+001
7.501859e+002,5.019763e+001
7.521144e+002,5.149034e+001
7.540429e+002,5.280697e+001
7.559714e+002,5.410469e+001
7.578999e+002,5.532419e+001
7.598284e+002,5.648856e+001
7.617569e+002,5.765888e+001
7.636854e+002,5.888685e+001
7.656139e+002,6.001911e+001
7.675424e+002,6.095056e+001
7.694709e+002,6.195813e+001
7.713994e+002,6.302852e+001
7.733279e+002,6.427946e+001
7.752564e+002,6.543661e+001
7.771849e+002,6.646765e+001
7.791134e+002,6.749570e+001
7.810419e+002,6.860378e+001
7.829704e+002,6.962399e+001
7.848989e+002,7.056078e+001
7.868274e+002,7.140204e+001
7.887559e+002,7.224930e+001
7.906844e+002,7.279108e+001
7.926129e+002,7.333295e+001
7.945414e+002,7.376110e+001
7.964699e+002,7.403503e+001
7.983984e+002,7.411340e+001
8.003269e+002,7.416285e+001
8.022554e+002,7.406976e+001
8.041839e+002,7.396994e+001
8.061124e+002,7.371869e+001
8.080409e+002,7.328844e+001
8.099694e+002,7.269847e+001
8.118979e+002,7.212422e+001
8.138264e+002,7.159289e+001
8.157549e+002,7.097054e+001
8.176833e+002,7.014922e+001
8.196119e+002,6.936088e+001
8.215403e+002,6.852479e+001
8.234689e+002,6.761983e+001
8.253973e+002,6.657613e+001
8.273259e+002,6.559310e+001
8.292543e+002,6.464330e+001
8.311829e+002,6.367136e+001
8.331113e+002,6.265761e+001
8.350399e+002,6.169566e+001
8.369683e+002,6.071083e+001
8.388969e+002,5.972875e+001
8.408253e+002,5.859878e+001
8.427538e+002,5.743321e+001
8.446824e+002,5.628722e+001
8.466108e+002,5.522794e+001
8.485394e+002,5.410719e+001
8.504678e+002,5.302517e+001
8.523964e+002,5.203546e+001
8.543248e+002,5.098909e+001
8.562534e+002,5.000040e+001
8.581818e+002,4.898562e+001
8.601104e+002,4.785853e+001
8.620388e+002,4.677042e+001
8.639673e+002,4.580542e+001
8.658958e+002,4.479626e+001
8.678243e+002,4.376098e+001
8.697528e+002,4.283186e+001
8.716813e+002,4.184890e+001
8.736098e+002,4.083553e+001
8.755383e+002,3.982472e+001
8.774668e+002,3.887018e+001
8.793953e+002,3.787960e+001
8.813238e+002,3.678369e+001
8.832523e+002,3.574112e+001
8.851808e+002,3.474006e+001
8.871093e+002,3.376817e+001
8.890378e+002,3.280000e+001
8.909663e+002,3.180451e+001
8.928948e+002,3.080650e+001
8.948233e+002,2.993730e+001
8.967518e+002,2.906162e+001
8.986803e+002,2.810600e+001
9.006088e+002,2.721104e+001
9.025373e+002,2.630655e+001
9.044658e+002,2.540026e+001
9.063943e+002,2.452964e+001
9.083228e+002,2.363597e+001
9.102513e+002,2.273219e+001
9.121798e+002,2.192827e+001
9.141083e+002,2.113484e+001
9.160368e+002,2.023657e+001
9.179653e+002,1.945445e+001
9.198938e+002,1.863797e+001
9.218223e+002,1.781097e+001
9.237508e+002,1.715252e+001
9.256793e+002,1.649933e+001
9.276078e+002,1.574378e+001
9.295363e+002,1.506253e+001
9.314648e+002,1.440260e+001
9.333932e+002,1.379704e+001
9.353218e+002,1.325240e+001
9.372502e+002,1.267215e+001
9.391788e+002,1.220642e+001
9.411072e+002,1.194333e+001
9.430358e+002,1.180312e+001
9.449643e+002,1.178492e+001
9.468928e+002,1.172210e+001
9.488213e+002,1.163786e+001
9.507498e+002,1.157938e+001
9.526783e+002,1.150836e+001
9.546068e+002,1.133460e+001
9.565353e+002,1.124781e+001
9.584637e+002,1.119555e+001
9.603923e+002,1.116721e+001
9.623207e+002,1.122253e+001
9.642493e+002,1.125782e+001
9.661777e+002,1.116794e+001
9.681063e+002,1.101883e+001
9.700347e+002,1.089231e+001
9.719633e+002,1.070213e+001
9.738917e+002,1.043927e+001
9.758203e+002,1.035647e+001
9.777487e+002,1.036404e+001
9.796772e+002,1.027518e+001
9.816057e+002,1.017658e+001
9.835342e+002,1.024355e+001
9.854627e+002,1.029361e+001
9.873912e+002,1.022996e+001
9.893197e+002,1.012274e+001
9.912482e+002,1.010681e+001
9.931768e+002,1.009573e+001
9.951052e+002,1.008179e+001
9.970338e+002,1.013989e+001
9.989622e+002,1.017040e+001
1.000891e+003,1.013486e+001
1.002819e+003,1.010402e+001
1.004748e+003,1.008462e+001
1.006676e+003,1.008026e+001
1.008605e+003,1.006518e+001
1.010533e+003,1.008032e+001
1.012462e+003,1.010440e+001
1.014390e+003,1.008987e+001
1.016319e+003,1.003572e+001
1.018247e+003,1.000741e+001
1.020176e+003,1.000000e+001
1.022104e+003,1.006964e+001
1.024033e+003,1.016879e+001
1.025961e+003,1.027362e+001
1.027890e+003,1.030660e+001
1.029818e+003,1.031619e+001
1.031747e+003,1.037654e+001
1.033675e+003,1.044964e+001
1.035604e+003,1.053067e+001
1.037532e+003,1.063254e+001
1.039461e+003,1.075538e+001
1.041389e+003,1.087390e+001
1.043318e+003,1.097469e+001
1.045246e+003,1.105739e+001
1.047175e+003,1.113873e+001
1.049103e+003,1.125381e+001
1.051032e+003,1.131956e+001
1.052960e+003,1.141677e+001
1.054889e+003,1.162889e+001
1.056817e+003,1.182288e+001
1.058746e+003,1.198376e+001
1.060674e+003,1.220475e+001
1.062603e+003,1.237022e+001
1.064531e+003,1.247737e+001
1.066460e+003,1.261025e+001
1.068388e+003,1.281946e+001
1.070317e+003,1.291025e+001
1.072245e+003,1.299708e+001
1.074174e+003,1.305416e+001
1.076102e+003,1.312068e+001
1.078031e+003,1.314041e+001
1.079959e+003,1.310106e+001
1.081888e+003,1.313399e+001
1.083816e+003,1.308067e+001
1.085745e+003,1.289094e+001
1.087673e+003,1.281959e+001
1.089602e+003,1.277120e+001
1.091530e+003,1.276151e+001
1.093459e+003,1.281035e+001
1.095387e+003,1.295301e+001
1.097316e+003,1.317500e+001
1.099244e+003,1.332221e+001
1.101173e+003,1.343647e+001
1.103101e+003,1.365437e+001
1.105030e+003,1.388513e+001
1.106958e+003,1.403375e+001
1.108887e+003,1.422945e+001
1.110815e+003,1.442941e+001
1.112744e+003,1.458840e+001
1.114672e+003,1.475070e+001
1.116601e+003,1.485866e+001
1.118529e+003,1.506603e+001
1.120458e+003,1.535641e+001
1.122386e+003,1.553469e+001
1.124315e+003,1.564606e+001
1.126243e+003,1.573107e+001
1.128172e+003,1.587774e+001
1.130100e+003,1.605268e+001
1.132029e+003,1.613652e+001
1.133957e+003,1.621963e+001
1.135886e+003,1.631546e+001
1.137814e+003,1.644785e+001
1.139743e+003,1.657303e+001
1.141671e+003,1.666117e+001
1.143600e+003,1.672297e+001
1.145528e+003,1.682502e+001
1.147457e+003,1.693216e+001
1.149385e+003,1.705322e+001
1.151314e+003,1.718829e+001
1.153242e+003,1.726254e+001
1.155171e+003,1.731605e+001
1.157099e+003,1.746992e+001
1.159028e+003,1.766032e+001
1.160956e+003,1.783470e+001
1.162885e+003,1.792405e+001
1.164813e+003,1.798060e+001
1.166742e+003,1.809921e+001
1.168670e+003,1.827980e+001
1.170599e+003,1.849235e+001
1.172527e+003,1.861704e+001
1.174456e+003,1.868298e+001
1.176384e+003,1.878215e+001
1.178313e+003,1.892432e+001
1.180241e+003,1.910025e+001
1.182170e+003,1.924086e+001
1.184098e+003,1.941151e+001
1.186027e+003,1.956123e+001
1.187955e+003,1.959587e+001
1.189884e+003,1.963717e+001
1.191812e+003,1.978900e+001
1.193741e+003,1.993589e+001
1.195669e+003,2.005827e+001
1.197598e+003,2.016891e+001
1.199526e+003,2.030626e+001
1.201455e+003,2.042926e+001
1.203383e+003,2.053443e+001
1.205312e+003,2.061221e+001
1.207240e+003,2.069526e+001
1.209169e+003,2.077579e+001
1.211097e+003,2.085630e+001
1.213026e+003,2.096990e+001
1.214954e+003,2.104519e+001
1.216883e+003,2.111993e+001
1.218811e+003,2.121946e+001
1.220740e+003,2.132040e+001
1.222668e+003,2.140411e+001
1.224597e+003,2.145259e+001
1.226525e+003,2.152927e+001
1.228453e+003,2.158825e+001
1.230382e+003,2.163382e+001
1.232311e+003,2.166252e+001
1.234239e+003,2.172415e+001
1.236167e+003,2.181547e+001
1.238096e+003,2.188148e+001
1.240025e+003,2.194188e+001
1.241953e+003,2.196815e+001
1.243882e+003,2.206329e+001
1.245810e+003,2.216200e+001
1.247739e+003,2.218471e+001
1.249667e+003,2.224541e+001
1.251596e+003,2.233400e+001
1.253524e+003,2.238583e+001
1.255453e+003,2.237745e+001
1.257381e+003,2.241072e+001
1.259310e+003,2.251609e+001
1.261238e+003,2.266265e+001
1.263167e+003,2.270292e+001
1.265095e+003,2.270156e+001
1.267024e+003,2.275409e+001
1.268952e+003,2.282540e+001
1.270880e+003,2.294104e+001
1.272809e+003,2.297911e+001
1.274738e+003,2.298926e+001
1.276666e+003,2.307299e+001
1.278594e+003,2.315744e+001
1.280523e+003,2.317030e+001
1.282452e+003,2.316158e+001
1.284380e+003,2.319995e+001
1.286308e+003,2.332244e+001
1.288237e+003,2.342417e+001
1.290166e+003,2.339869e+001
1.292094e+003,2.339168e+001
1.294022e+003,2.344112e+001
1.295951e+003,2.346717e+001
1.297880e+003,2.349839e+001
1.299808e+003,2.352819e+001
1.301736e+003,2.353329e+001
1.303665e+003,2.353404e+001
1.305594e+003,2.359138e+001
1.307522e+003,2.361312e+001
1.309450e+003,2.357080e+001
1.311379e+003,2.362477e+001
1.313307e+003,2.373193e+001
1.315236e+003,2.374845e+001
1.317164e+003,2.380395e+001
1.319093e+003,2.388464e+001
1.321021e+003,2.386105e+001
1.322950e+003,2.381294e+001
1.324878e+003,2.384366e+001
1.326807e+003,2.386832e+001
1.328735e+003,2.390293e+001
1.330664e+003,2.391405e+001
1.332592e+003,2.387543e+001
1.334521e+003,2.383870e+001
1.336449e+003,2.390917e+001
1.338378e+003,2.409381e+001
1.340307e+003,2.423655e+001
1.342235e+003,2.414960e+001
1.344163e+003,2.410561e+001
1.346092e+003,2.412456e+001
1.348021e+003,2.417310e+001
1.349949e+003,2.419695e+001
1.351877e+003,2.414538e+001
1.353806e+003,2.420842e+001
1.355734e+003,2.425539e+001
1.357663e+003,2.423974e+001
1.359591e+003,2.425360e+001
1.361520e+003,2.438908e+001
1.363448e+003,2.454768e+001
1.365377e+003,2.441318e+001
1.367305e+003,2.438142e+001
1.369234e+003,2.442653e+001
1.371162e+003,2.439782e+001
1.373091e+003,2.449192e+001
1.375019e+003,2.467882e+001
1.376948e+003,2.456335e+001
1.378876e+003,2.454252e+001
1.380805e+003,2.451058e+001
1.382733e+003,2.446041e+001
1.384662e+003,2.449091e+001
1.386590e+003,2.471271e+001
1.388519e+003,2.477195e+001
1.390447e+003,2.460458e+001
1.392376e+003,2.457896e+001
1.394304e+003,2.478367e+001
1.396233e+003,2.491463e+001
1.398161e+003,2.483658e+001
1.400090e+003,2.485328e+001
1.402018e+003,2.465607e+001
1.403947e+003,2.462232e+001
1.405875e+003,2.469847e+001
1.407804e+003,2.461448e+001
1.409732e+003,2.458382e+001
1.411661e+003,2.464633e+001
1.413589e+003,2.463773e+001
1.415518e+003,2.461455e+001
1.417446e+003,2.465160e+001
1.419375e+003,2.494594e+001
1.421303e+003,2.481798e+001
1.423232e+003,2.473110e+001
1.425160e+003,2.478032e+001
1.427089e+003,2.466263e+001
1.429017e+003,2.477083e+001
1.430946e+003,2.482605e+001
1.432874e+003,2.475663e+001
1.434803e+003,2.473762e+001
1.436731e+003,2.508735e+001
1.438660e+003,2.498769e+001
1.440588e+003,2.476786e+001
1.442517e+003,2.475603e+001
1.444445e+003,2.475690e+001
1.446374e+003,2.483397e+001
1.448302e+003,2.499292e+001
1.450231e+003,2.489672e+001
1.452159e+003,2.490529e+001
1.454088e+003,2.489785e+001
1.456016e+003,2.516294e+001
1.457945e+003,2.600862e+001
1.459873e+003,2.540384e+001
1.461802e+003,2.496591e+001
1.463730e+003,2.495812e+001
1.465659e+003,2.520029e+001
1.467587e+003,2.504157e+001
1.469516e+003,2.485885e+001
1.471444e+003,2.502428e+001
1.473373e+003,2.556375e+001
1.475301e+003,2.533375e+001
1.477230e+003,2.521431e+001
1.479158e+003,2.501639e+001
1.481087e+003,2.501423e+001
1.483015e+003,2.502255e+001
1.484944e+003,2.495374e+001
1.486872e+003,2.510805e+001
1.488801e+003,2.542358e+001
1.490729e+003,2.557010e+001
1.492658e+003,2.518389e+001
1.494586e+003,2.501361e+001
1.496515e+003,2.533286e+001
1.498443e+003,2.545583e+001
1.500372e+003,2.530380e+001
1.502300e+003,2.513778e+001
1.504229e+003,2.499665e+001
1.506157e+003,2.562659e+001
1.508086e+003,2.652713e+001
1.510014e+003,2.570993e+001
1.511943e+003,2.537126e+001
1.513871e+003,2.522793e+001
1.515800e+003,2.534853e+001
1.517728e+003,2.564832e+001
1.519657e+003,2.546264e+001
1.521585e+003,2.607886e+001
1.523514e+003,2.588964e+001
1.525442e+003,2.569220e+001
1.527371e+003,2.570403e+001
1.529299e+003,2.553933e+001
1.531228e+003,2.534623e+001
1.533156e+003,2.567681e+001
1.535085e+003,2.579832e+001
1.537013e+003,2.539031e+001
1.538942e+003,2.557805e+001
1.540870e+003,2.669190e+001
1.542799e+003,2.637429e+001
1.544727e+003,2.621657e+001
1.546656e+003,2.569946e+001
1.548584e+003,2.548354e+001
1.550513e+003,2.570908e+001
1.552441e+003,2.559984e+001
1.554370e+003,2.581844e+001
1.556298e+003,2.587176e+001
1.558227e+003,2.638214e+001
1.560155e+003,2.694501e+001
1.562084e+003,2.590367e+001
1.564012e+003,2.565913e+001
1.565941e+003,2.563224e+001
1.567869e+003,2.552532e+001
1.569798e+003,2.594354e+001
1.571726e+003,2.566291e+001
1.573655e+003,2.528957e+001
1.575583e+003,2.555862e+001
1.577512e+003,2.587416e+001
1.579440e+003,2.546736e+001
1.581369e+003,2.528496e+001
1.583297e+003,2.524844e+001
1.585226e+003,2.521966e+001
1.587154e+003,2.518679e+001
1.589083e+003,2.520118e+001
1.591011e+003,2.520283e+001
1.592940e+003,2.520259e+001
1.594868e+003,2.519516e+001
1.596797e+003,2.516959e+001
1.598725e+003,2.510240e+001
1.600654e+003,2.507030e+001
1.602582e+003,2.507586e+001
1.604511e+003,2.498359e+001
1.606439e+003,2.490992e+001
1.608368e+003,2.496182e+001
1.610296e+003,2.490856e+001
1.612225e+003,2.484770e+001
1.614153e+003,2.476518e+001
1.616082e+003,2.501633e+001
1.618010e+003,2.522486e+001
1.619939e+003,2.490971e+001
1.621867e+003,2.487583e+001
1.623796e+003,2.508435e+001
1.625724e+003,2.482790e+001
1.627653e+003,2.480165e+001
1.629581e+003,2.478570e+001
1.631510e+003,2.458293e+001
1.633438e+003,2.444021e+001
1.635367e+003,2.492297e+001
1.637295e+003,2.523590e+001
1.639224e+003,2.474163e+001
1.641152e+003,2.457107e+001
1.643081e+003,2.452136e+001
1.645009e+003,2.453582e+001
1.646938e+003,2.514337e+001
1.648866e+003,2.497255e+001
1.650795e+003,2.438196e+001
1.652723e+003,2.474186e+001
1.654652e+003,2.534956e+001
1.656580e+003,2.476469e+001
1.658509e+003,2.444136e+001
1.660437e+003,2.433022e+001
1.662366e+003,2.455815e+001
1.664294e+003,2.459325e+001
1.666223e+003,2.427963e+001
1.668151e+003,2.440763e+001
1.670080e+003,2.497577e+001
1.672008e+003,2.478800e+001
1.673937e+003,2.456262e+001
1.675865e+003,2.474877e+001
1.677794e+003,2.448702e+001
1.679722e+003,2.448243e+001
1.681651e+003,2.444727e+001
1.683579e+003,2.469013e+001
1.685508e+003,2.512298e+001
1.687436e+003,2.468141e+001
1.689365e+003,2.463268e+001
1.691293e+003,2.454837e+001
1.693222e+003,2.432925e+001
1.695150e+003,2.459194e+001
1.697079e+003,2.519087e+001
1.699007e+003,2.498243e+001
1.700936e+003,2.524465e+001
1.702864e+003,2.480016e+001
1.704793e+003,2.475907e+001
1.706721e+003,2.486561e+001
1.708650e+003,2.458763e+001
1.710578e+003,2.455756e+001
1.712507e+003,2.454040e+001
1.714435e+003,2.472764e+001
1.716364e+003,2.503158e+001
1.718292e+003,2.528498e+001
1.720221e+003,2.483660e+001
1.722149e+003,2.461277e+001
1.724078e+003,2.465839e+001
1.726006e+003,2.459139e+001
1.727935e+003,2.450920e+001
1.729863e+003,2.462253e+001
1.731792e+003,2.467571e+001
1.733720e+003,2.508693e+001
1.735649e+003,2.527572e+001
1.737577e+003,2.484636e+001
1.739506e+003,2.498224e+001
1.741434e+003,2.498298e+001
1.743363e+003,2.500087e+001
1.745291e+003,2.505059e+001
1.747220e+003,2.510172e+001
1.749148e+003,2.528642e+001
1.751077e+003,2.533641e+001
1.753005e+003,2.514088e+001
1.754934e+003,2.489946e+001
1.756862e+003,2.508579e+001
1.758791e+003,2.500890e+001
1.760719e+003,2.500281e+001
1.762648e+003,2.520802e+001
1.764576e+003,2.499905e+001
1.766505e+003,2.493588e+001
1.768433e+003,2.507591e+001
1.770362e+003,2.503061e+001
1.772290e+003,2.542517e+001
1.774219e+003,2.532304e+001
1.776147e+003,2.503714e+001
1.778076e+003,2.490056e+001
1.780004e+003,2.496721e+001
1.781933e+003,2.499610e+001
1.783861e+003,2.495567e+001
1.785790e+003,2.501589e+001
1.787718e+003,2.490526e+001
1.789647e+003,2.483268e+001
1.791575e+003,2.513855e+001
1.793504e+003,2.536517e+001
1.795432e+003,2.517418e+001
1.797361e+003,2.504355e+001
1.799289e+003,2.504227e+001
1.801218e+003,2.519171e+001
1.803146e+003,2.505374e+001
1.805075e+003,2.490767e+001
1.807003e+003,2.488840e+001
1.808932e+003,2.499236e+001
1.810860e+003,2.513503e+001
1.812789e+003,2.510923e+001
1.814717e+003,2.499446e+001
1.816646e+003,2.502522e+001
1.818574e+003,2.500477e+001
1.820503e+003,2.498905e+001
1.822431e+003,2.498555e+001
1.824360e+003,2.511164e+001
1.826288e+003,2.516204e+001
1.828217e+003,2.510282e+001
1.830145e+003,2.541482e+001
1.832074e+003,2.526857e+001
1.834002e+003,2.506420e+001
1.835931e+003,2.508738e+001
1.837859e+003,2.510935e+001
1.839788e+003,2.506249e+001
1.841716e+003,2.505851e+001
1.843645e+003,2.535151e+001
1.845573e+003,2.544204e+001
1.847502e+003,2.528012e+001
1.849430e+003,2.520229e+001
1.851359e+003,2.511515e+001
1.853287e+003,2.510952e+001
1.855216e+003,2.508977e+001
1.857144e+003,2.507623e+001
1.859073e+003,2.506314e+001
1.861001e+003,2.507340e+001
1.862930e+003,2.503926e+001
1.864858e+003,2.499962e+001
1.866786e+003,2.512017e+001
1.868715e+003,2.544557e+001
1.870644e+003,2.533903e+001
1.872572e+003,2.504933e+001
1.874500e+003,2.497866e+001
1.876429e+003,2.497248e+001
1.878358e+003,2.496522e+001
1.880286e+003,2.494569e+001
1.882215e+003,2.490776e+001
1.884143e+003,2.488024e+001
1.886072e+003,2.485231e+001
1.888000e+003,2.481070e+001
1.889929e+003,2.489309e+001
1.891857e+003,2.480694e+001
1.893786e+003,2.477776e+001
1.895714e+003,2.481903e+001
1.897643e+003,2.475735e+001
1.899571e+003,2.469111e+001
1.901500e+003,2.467398e+001
1.903428e+003,2.469427e+001
1.905357e+003,2.467991e+001
1.907285e+003,2.471504e+001
1.909214e+003,2.472384e+001
1.911142e+003,2.463971e+001
1.913071e+003,2.459107e+001
1.914999e+003,2.454797e+001
1.916927e+003,2.457254e+001
1.918856e+003,2.465266e+001
1.920785e+003,2.454439e+001
1.922713e+003,2.467497e+001
1.924641e+003,2.462811e+001
1.926570e+003,2.447104e+001
1.928499e+003,2.439073e+001
1.930427e+003,2.436708e+001
1.932355e+003,2.440538e+001
1.934284e+003,2.438498e+001
1.936213e+003,2.431345e+001
1.938141e+003,2.423193e+001
1.940069e+003,2.419270e+001
1.941998e+003,2.433202e+001
1.943927e+003,2.438229e+001
1.945855e+003,2.427532e+001
1.947783e+003,2.423759e+001
1.949712e+003,2.417954e+001
1.951641e+003,2.411570e+001
1.953569e+003,2.410355e+001
1.955497e+003,2.415853e+001
1.957426e+003,2.413486e+001
1.959354e+003,2.413307e+001
1.961283e+003,2.410316e+001
1.963211e+003,2.409336e+001
1.965140e+003,2.408599e+001
1.967068e+003,2.417049e+001
1.968997e+003,2.418811e+001
1.970925e+003,2.410860e+001
1.972854e+003,2.408660e+001
1.974782e+003,2.413454e+001
1.976711e+003,2.416378e+001
1.978639e+003,2.418321e+001
1.980568e+003,2.419145e+001
1.982496e+003,2.416181e+001
1.984425e+003,2.412044e+001
1.986354e+003,2.413816e+001
1.988282e+003,2.416366e+001
1.990210e+003,2.413314e+001
1.992139e+003,2.420939e+001
1.994068e+003,2.417962e+001
1.995996e+003,2.408446e+001
1.997924e+003,2.404576e+001
1.999853e+003,2.406189e+001
2.001781e+003,2.410488e+001
2.003710e+003,2.410447e+001
2.005638e+003,2.407971e+001
2.007567e+003,2.406481e+001
2.009495e+003,2.409031e+001
2.011424e+003,2.408094e+001
2.013352e+003,2.405612e+001
2.015281e+003,2.406822e+001
2.017209e+003,2.413727e+001
2.019138e+003,2.409361e+001
2.021066e+003,2.404038e+001
2.022995e+003,2.400641e+001
2.024923e+003,2.394845e+001
2.026852e+003,2.395285e+001
2.028780e+003,2.395696e+001
2.030709e+003,2.390197e+001
2.032637e+003,2.387565e+001
2.034566e+003,2.385934e+001
2.036494e+003,2.387013e+001
2.038423e+003,2.385096e+001
2.040351e+003,2.382368e+001
2.042280e+003,2.382291e+001
2.044208e+003,2.383540e+001
2.046137e+003,2.384278e+001
2.048065e+003,2.383843e+001
2.049994e+003,2.379919e+001
2.051922e+003,2.378061e+001
2.053851e+003,2.377167e+001
2.055779e+003,2.374139e+001
2.057708e+003,2.374418e+001
2.059636e+003,2.369121e+001
2.061565e+003,2.366122e+001
2.063493e+003,2.372403e+001
2.065422e+003,2.379119e+001
2.067350e+003,2.378727e+001
2.069279e+003,2.376813e+001
2.071207e+003,2.375490e+001
2.073136e+003,2.377480e+001
2.075064e+003,2.378945e+001
2.076993e+003,2.374199e+001
2.078921e+003,2.372445e+001
2.080850e+003,2.374768e+001
2.082778e+003,2.373564e+001
2.084707e+003,2.375868e+001
2.086635e+003,2.376359e+001
2.088564e+003,2.374662e+001
2.090492e+003,2.380452e+001
2.092421e+003,2.382026e+001
2.094349e+003,2.380544e+001
2.096278e+003,2.381607e+001
2.098206e+003,2.377666e+001
2.100135e+003,2.376273e+001
2.102063e+003,2.376571e+001
2.103992e+003,2.376982e+001
2.105920e+003,2.378683e+001
2.107849e+003,2.380698e+001
2.109777e+003,2.382459e+001
2.111706e+003,2.384191e+001
2.113634e+003,2.381729e+001
2.115563e+003,2.378934e+001
2.117491e+003,2.380369e+001
2.119420e+003,2.382473e+001
2.121348e+003,2.379300e+001
2.123277e+003,2.378861e+001
2.125205e+003,2.379927e+001
2.127134e+003,2.379646e+001
2.129062e+003,2.376186e+001
2.130991e+003,2.373850e+001
2.132919e+003,2.372482e+001
2.134848e+003,2.372424e+001
2.136776e+003,2.375072e+001
2.138705e+003,2.377801e+001
2.140633e+003,2.377284e+001
2.142562e+003,2.373690e+001
2.144490e+003,2.373205e+001
2.146419e+003,2.372762e+001
2.148347e+003,2.367919e+001
2.150276e+003,2.365971e+001
2.152204e+003,2.365459e+001
2.154133e+003,2.366616e+001
2.156061e+003,2.370340e+001
2.157990e+003,2.369839e+001
2.159918e+003,2.364238e+001
2.161847e+003,2.362914e+001
2.163775e+003,2.360657e+001
2.165704e+003,2.362925e+001
2.167632e+003,2.363066e+001
2.169561e+003,2.358803e+001
2.171489e+003,2.357002e+001
2.173418e+003,2.356770e+001
2.175346e+003,2.352910e+001
2.177275e+003,2.357792e+001
2.179203e+003,2.360139e+001
2.181132e+003,2.357531e+001
2.183060e+003,2.353835e+001
2.184989e+003,2.355188e+001
2.186917e+003,2.357901e+001
2.188846e+003,2.355980e+001
2.190774e+003,2.353050e+001
2.192703e+003,2.353251e+001
2.194631e+003,2.355301e+001
2.196560e+003,2.355161e+001
2.198488e+003,2.353253e+001
2.200417e+003,2.353230e+001
2.202345e+003,2.349848e+001
2.204274e+003,2.344354e+001
2.206202e+003,2.343584e+001
2.208131e+003,2.347633e+001
2.210059e+003,2.348062e+001
2.211988e+003,2.347646e+001
2.213916e+003,2.351483e+001
2.215845e+003,2.352373e+001
2.217773e+003,2.347617e+001
2.219702e+003,2.342524e+001
2.221630e+003,2.341925e+001
2.223559e+003,2.340797e+001
2.225487e+003,2.338790e+001
2.227416e+003,2.340409e+001
2.229344e+003,2.341854e+001
2.231273e+003,2.339042e+001
2.233201e+003,2.332822e+001
2.235130e+003,2.330676e+001
2.237058e+003,2.334363e+001
2.238987e+003,2.333875e+001
2.240915e+003,2.331792e+001
2.242844e+003,2.329580e+001
2.244772e+003,2.323655e+001
2.246701e+003,2.322481e+001
2.248629e+003,2.320299e+001
2.250558e+003,2.320090e+001
2.252486e+003,2.322630e+001
2.254415e+003,2.320614e+001
2.256343e+003,2.315895e+001
2.258272e+003,2.313426e+001
2.260200e+003,2.312078e+001
2.262129e+003,2.312850e+001
2.264057e+003,2.310349e+001
2.265986e+003,2.309351e+001
2.267914e+003,2.307512e+001
2.269843e+003,2.304595e+001
2.271771e+003,2.302523e+001
2.273700e+003,2.303300e+001
2.275628e+003,2.303753e+001
2.277557e+003,2.303480e+001
2.279485e+003,2.301220e+001
2.281414e+003,2.301115e+001
2.283342e+003,2.300704e+001
2.285271e+003,2.296447e+001
2.287199e+003,2.286089e+001
2.289128e+003,2.276447e+001
2.291056e+003,2.270534e+001
2.292985e+003,2.261567e+001
2.294913e+003,2.258025e+001
2.296842e+003,2.253643e+001
2.298770e+003,2.243459e+001
2.300699e+003,2.233596e+001
2.302627e+003,2.224965e+001
2.304556e+003,2.215029e+001
2.306484e+003,2.197754e+001
2.308413e+003,2.176273e+001
2.310341e+003,2.157454e+001
2.312270e+003,2.149094e+001
2.314198e+003,2.140977e+001
2.316127e+003,2.119663e+001
2.318055e+003,2.092967e+001
2.319984e+003,2.073442e+001
2.321912e+003,2.059294e+001
2.323841e+003,2.044489e+001
2.325769e+003,2.025260e+001
2.327698e+003,2.004434e+001
2.329626e+003,1.991185e+001
2.331555e+003,1.990171e+001
2.333483e+003,1.990328e+001
2.335412e+003,1.979936e+001
2.337340e+003,1.957407e+001
2.339269e+003,1.934396e+001
2.341197e+003,1.933129e+001
2.343126e+003,1.952031e+001
2.345054e+003,1.996423e+001
2.346983e+003,2.053134e+001
2.348911e+003,2.048998e+001
2.350840e+003,1.988837e+001
2.352768e+003,1.929519e+001
2.354697e+003,1.890076e+001
2.356625e+003,1.839816e+001
2.358554e+003,1.811055e+001
2.360482e+003,1.832996e+001
2.362411e+003,1.849025e+001
2.364339e+003,1.881239e+001
2.366268e+003,1.907857e+001
2.368196e+003,1.938902e+001
2.370125e+003,1.986990e+001
2.372053e+003,2.038614e+001
2.373982e+003,2.084256e+001
2.375910e+003,2.112815e+001
2.377839e+003,2.140734e+001
2.379767e+003,2.178475e+001
2.381696e+003,2.211116e+001
2.383624e+003,2.238270e+001
2.385553e+003,2.255889e+001
2.387481e+003,2.265725e+001
2.389410e+003,2.268875e+001
2.391338e+003,2.267817e+001
2.393267e+003,2.264771e+001
2.395195e+003,2.260067e+001
2.397124e+003,2.260807e+001
2.399052e+003,2.261638e+001
2.400981e+003,2.262287e+001
2.402909e+003,2.262919e+001
2.404838e+003,2.262222e+001
2.406766e+003,2.260081e+001
2.408695e+003,2.255740e+001
2.410623e+003,2.250626e+001
2.412552e+003,2.250669e+001
2.414480e+003,2.251046e+001
2.416409e+003,2.251311e+001
2.418337e+003,2.251555e+001
2.420266e+003,2.252511e+001
2.422194e+003,2.255194e+001
2.424123e+003,2.254296e+001
2.426051e+003,2.252332e+001
2.427980e+003,2.249207e+001
2.429908e+003,2.249496e+001
2.431837e+003,2.249569e+001
2.433765e+003,2.247715e+001
2.435694e+003,2.245194e+001
2.437622e+003,2.245035e+001
2.439551e+003,2.245484e+001
2.441479e+003,2.242534e+001
2.443408e+003,2.245299e+001
2.445336e+003,2.244354e+001
2.447265e+003,2.236526e+001
2.449193e+003,2.238581e+001
2.451122e+003,2.244506e+001
2.453050e+003,2.240217e+001
2.454979e+003,2.234897e+001
2.456907e+003,2.235445e+001
2.458836e+003,2.236267e+001
2.460764e+003,2.231533e+001
2.462693e+003,2.227861e+001
2.464621e+003,2.231311e+001
2.466550e+003,2.230062e+001
2.468478e+003,2.223905e+001
2.470406e+003,2.224350e+001
2.472335e+003,2.224139e+001
2.474264e+003,2.223420e+001
2.476192e+003,2.230501e+001
2.478121e+003,2.229962e+001
2.480049e+003,2.222335e+001
2.481978e+003,2.221152e+001
2.483906e+003,2.220279e+001
2.485834e+003,2.217954e+001
2.487763e+003,2.218385e+001
2.489692e+003,2.220760e+001
2.491620e+003,2.223813e+001
2.493549e+003,2.221017e+001
2.495477e+003,2.216036e+001
2.497406e+003,2.214363e+001
2.499334e+003,2.216251e+001
2.501262e+003,2.213737e+001
2.503191e+003,2.214132e+001
2.505120e+003,2.215101e+001
2.507048e+003,2.211749e+001
2.508977e+003,2.212856e+001
2.510905e+003,2.213930e+001
2.512833e+003,2.211165e+001
2.514762e+003,2.210944e+001
2.516690e+003,2.211523e+001
2.518619e+003,2.208252e+001
2.520548e+003,2.205695e+001
2.522476e+003,2.205988e+001
2.524405e+003,2.205605e+001
2.526333e+003,2.205399e+001
2.528261e+003,2.205933e+001
2.530190e+003,2.207409e+001
2.532119e+003,2.205002e+001
2.534047e+003,2.199259e+001
2.535976e+003,2.201196e+001
2.537904e+003,2.204170e+001
2.539833e+003,2.199860e+001
2.541761e+003,2.200110e+001
2.543689e+003,2.198552e+001
2.545618e+003,2.196436e+001
2.547547e+003,2.198567e+001
2.549475e+003,2.198596e+001
2.551404e+003,2.195222e+001
2.553332e+003,2.192462e+001
2.555260e+003,2.194910e+001
2.557189e+003,2.194106e+001
2.559117e+003,2.188729e+001
2.561046e+003,2.185163e+001
2.562975e+003,2.183403e+001
2.564903e+003,2.185014e+001
2.566832e+003,2.189063e+001
2.568760e+003,2.185549e+001
2.570688e+003,2.183362e+001
2.572617e+003,2.182784e+001
2.574545e+003,2.184291e+001
2.576474e+003,2.180093e+001
2.578403e+003,2.177397e+001
2.580331e+003,2.179332e+001
2.582260e+003,2.180648e+001
2.584188e+003,2.179115e+001
2.586116e+003,2.179367e+001
2.588045e+003,2.180224e+001
2.589973e+003,2.182184e+001
2.591902e+003,2.181880e+001
2.593831e+003,2.176725e+001
2.595759e+003,2.172695e+001
2.597688e+003,2.174192e+001
2.599616e+003,2.173104e+001
2.601544e+003,2.167086e+001
2.603473e+003,2.164835e+001
2.605401e+003,2.167646e+001
2.607330e+003,2.168168e+001
2.609259e+003,2.165906e+001
2.611187e+003,2.163255e+001
2.613115e+003,2.161863e+001
2.615044e+003,2.163346e+001
2.616972e+003,2.163247e+001
2.618901e+003,2.163107e+001
2.620830e+003,2.162404e+001
2.622758e+003,2.161878e+001
2.624687e+003,2.160230e+001
2.626615e+003,2.155171e+001
2.628543e+003,2.154347e+001
2.630472e+003,2.151940e+001
2.632400e+003,2.145594e+001
2.634329e+003,2.148379e+001
2.636258e+003,2.156137e+001
2.638186e+003,2.157218e+001
2.640115e+003,2.153536e+001
2.642043e+003,2.149219e+001
2.643971e+003,2.151120e+001
2.645900e+003,2.150709e+001
2.647828e+003,2.145483e+001
2.649757e+003,2.140252e+001
2.651686e+003,2.141893e+001
2.653614e+003,2.147653e+001
2.655542e+003,2.148843e+001
2.657471e+003,2.143250e+001
2.659399e+003,2.141129e+001
2.661328e+003,2.141879e+001
2.663256e+003,2.145938e+001
2.665185e+003,2.147069e+001
2.667114e+003,2.149444e+001
2.669042e+003,2.149314e+001
2.670970e+003,2.143316e+001
2.672899e+003,2.139826e+001
2.674827e+003,2.137864e+001
2.676756e+003,2.137193e+001
2.678684e+003,2.137461e+001
2.680613e+003,2.135503e+001
2.682542e+003,2.133900e+001
2.684470e+003,2.134569e+001
2.686398e+003,2.134813e+001
2.688327e+003,2.134073e+001
2.690255e+003,2.133547e+001
2.692184e+003,2.130062e+001
2.694112e+003,2.129271e+001
2.696041e+003,2.131005e+001
2.697969e+003,2.133039e+001
2.699898e+003,2.132728e+001
2.701826e+003,2.125908e+001
2.703755e+003,2.119365e+001
2.705683e+003,2.122718e+001
2.707612e+003,2.124880e+001
2.709540e+003,2.122763e+001
2.711469e+003,2.121391e+001
2.713397e+003,2.123616e+001
2.715326e+003,2.122414e+001
2.717254e+003,2.116107e+001
2.719183e+003,2.116730e+001
2.721111e+003,2.116094e+001
2.723040e+003,2.115263e+001
2.724969e+003,2.119237e+001
2.726897e+003,2.117514e+001
2.728825e+003,2.111647e+001
2.730754e+003,2.107292e+001
2.732682e+003,2.109903e+001
2.734611e+003,2.113503e+001
2.736539e+003,2.112171e+001
2.738468e+003,2.103177e+001
2.740396e+003,2.096241e+001
2.742325e+003,2.096769e+001
2.744253e+003,2.100068e+001
2.746182e+003,2.106377e+001
2.748110e+003,2.110137e+001
2.750039e+003,2.103325e+001
2.751967e+003,2.098245e+001
2.753896e+003,2.103580e+001
2.755824e+003,2.105293e+001
2.757753e+003,2.100758e+001
2.759681e+003,2.099184e+001
2.761610e+003,2.096390e+001
2.763538e+003,2.093904e+001
2.765467e+003,2.095214e+001
2.767395e+003,2.094281e+001
2.769324e+003,2.099154e+001
2.771252e+003,2.100978e+001
2.773181e+003,2.093600e+001
2.775109e+003,2.089795e+001
2.777038e+003,2.090634e+001
2.778966e+003,2.090999e+001
2.780895e+003,2.091212e+001
2.782823e+003,2.083604e+001
2.784752e+003,2.084563e+001
2.786680e+003,2.093188e+001
2.788609e+003,2.094141e+001
2.790537e+003,2.087926e+001
2.792466e+003,2.081234e+001
2.794394e+003,2.082028e+001
2.796323e+003,2.085085e+001
2.798251e+003,2.083165e+001
2.800180e+003,2.081351e+001
2.802108e+003,2.082084e+001
2.804037e+003,2.080321e+001
2.805965e+003,2.081361e+001
2.807894e+003,2.085764e+001
2.809822e+003,2.085020e+001
2.811751e+003,2.078468e+001
2.813679e+003,2.075732e+001
2.815608e+003,2.074471e+001
2.817536e+003,2.072915e+001
2.819465e+003,2.067813e+001
2.821393e+003,2.071777e+001
2.823322e+003,2.071008e+001
2.825250e+003,2.064491e+001
2.827179e+003,2.061050e+001
2.829107e+003,2.061907e+001
2.831036e+003,2.064105e+001
2.832964e+003,2.063750e+001
2.834893e+003,2.060477e+001
2.836821e+003,2.062266e+001
2.838750e+003,2.060865e+001
2.840678e+003,2.059613e+001
2.842607e+003,2.061332e+001
2.844535e+003,2.060122e+001
2.846464e+003,2.054866e+001
2.848392e+003,2.053473e+001
2.850321e+003,2.051801e+001
2.852249e+003,2.050306e+001
2.854178e+003,2.043135e+001
2.856106e+003,2.040249e+001
2.858035e+003,2.041197e+001
2.859963e+003,2.046359e+001
2.861892e+003,2.048396e+001
2.863820e+003,2.046315e+001
2.865749e+003,2.046269e+001
2.867677e+003,2.047668e+001
2.869606e+003,2.043464e+001
2.871534e+003,2.040573e+001
2.873463e+003,2.042435e+001
2.875391e+003,2.040007e+001
2.877320e+003,2.037726e+001
2.879248e+003,2.034662e+001
2.881177e+003,2.032622e+001
2.883105e+003,2.032626e+001
2.885034e+003,2.035237e+001
2.886962e+003,2.031685e+001
2.888891e+003,2.032104e+001
2.890819e+003,2.037321e+001
2.892748e+003,2.034383e+001
2.894676e+003,2.029817e+001
2.896605e+003,2.029056e+001
2.898533e+003,2.029144e+001
2.900462e+003,2.028505e+001
2.902390e+003,2.023847e+001
2.904319e+003,2.017597e+001
2.906247e+003,2.017909e+001
2.908176e+003,2.018697e+001
2.910104e+003,2.014034e+001
2.912033e+003,2.009652e+001
2.913961e+003,2.010478e+001
2.915890e+003,2.011577e+001
2.917818e+003,2.009508e+001
2.919747e+003,2.007455e+001
2.921675e+003,2.009562e+001
2.923604e+003,2.007491e+001
2.925532e+003,2.004904e+001
2.927461e+003,2.003922e+001
2.929389e+003,2.005122e+001
2.931318e+003,2.006512e+001
2.933246e+003,2.001652e+001
2.935175e+003,2.003533e+001
2.937103e+003,2.003405e+001
2.939032e+003,1.998534e+001
2.940960e+003,2.001754e+001
2.942889e+003,2.006546e+001
2.944817e+003,2.001772e+001
2.946746e+003,2.001478e+001
2.948674e+003,2.003886e+001
2.950603e+003,2.004186e+001
2.952531e+003,2.006339e+001
2.954460e+003,2.003609e+001
2.956388e+003,1.998343e+001
2.958317e+003,1.995233e+001
2.960245e+003,1.997375e+001
2.962174e+003,1.998256e+001
2.964102e+003,1.997611e+001
2.966031e+003,1.988718e+001
2.967959e+003,1.978972e+001
2.969888e+003,1.977962e+001
2.971816e+003,1.984319e+001
2.973745e+003,1.990417e+001
2.975673e+003,1.989614e+001
2.977602e+003,1.990578e+001
2.979530e+003,1.992401e+001
2.981459e+003,1.992095e+001
2.983387e+003,1.993066e+001
2.985316e+003,1.994120e+001
2.987244e+003,1.993249e+001
2.989173e+003,1.989653e+001
2.991101e+003,1.991015e+001
2.993030e+003,1.986881e+001
2.994958e+003,1.977303e+001
2.996887e+003,1.980736e+001
2.998815e+003,1.981777e+001
3.000744e+003,1.980516e+001
3.002672e+003,1.982175e+001
3.004601e+003,1.977263e+001
3.006529e+003,1.977040e+001
3.008458e+003,1.972890e+001
3.010386e+003,1.964971e+001
3.012315e+003,1.966400e+001
3.014243e+003,1.973940e+001
3.016172e+003,1.984458e+001
3.018100e+003,1.978112e+001
3.020029e+003,1.968314e+001
3.021957e+003,1.968091e+001
3.023886e+003,1.974400e+001
3.025814e+003,1.973337e+001
3.027743e+003,1.964234e+001
3.029671e+003,1.962155e+001
3.031600e+003,1.965173e+001
3.033528e+003,1.965429e+001
3.035457e+003,1.964583e+001
3.037385e+003,1.961370e+001
3.039314e+003,1.964560e+001
3.041242e+003,1.969834e+001
3.043171e+003,1.964948e+001
3.045099e+003,1.958744e+001
3.047028e+003,1.958006e+001
3.048956e+003,1.960405e+001
3.050885e+003,1.958549e+001
3.052813e+003,1.954207e+001
3.054742e+003,1.953683e+001
3.056670e+003,1.955346e+001
3.058599e+003,1.954489e+001
3.060527e+003,1.952800e+001
3.062456e+003,1.947170e+001
3.064384e+003,1.941627e+001
3.066313e+003,1.949434e+001
3.068241e+003,1.954143e+001
3.070170e+003,1.947057e+001
3.072098e+003,1.946357e+001
3.074027e+003,1.945754e+001
3.075955e+003,1.941960e+001
3.077884e+003,1.945209e+001
3.079812e+003,1.944387e+001
3.081741e+003,1.939231e+001
3.083669e+003,1.930871e+001
3.085598e+003,1.927893e+001
3.087526e+003,1.934221e+001
3.089455e+003,1.932197e+001
3.091383e+003,1.924089e+001
3.093312e+003,1.924586e+001
3.095240e+003,1.930373e+001
3.097169e+003,1.924882e+001
3.099097e+003,1.918519e+001
3.101026e+003,1.926399e+001
3.102954e+003,1.927373e+001
3.104883e+003,1.920707e+001
3.106811e+003,1.921217e+001
3.108740e+003,1.919217e+001
3.110668e+003,1.918150e+001
3.112597e+003,1.922656e+001
3.114525e+003,1.921306e+001
3.116454e+003,1.921711e+001
3.118382e+003,1.917299e+001
3.120311e+003,1.913961e+001
3.122239e+003,1.915020e+001
3.124167e+003,1.912223e+001
3.126096e+003,1.907984e+001
3.128025e+003,1.902973e+001
3.129953e+003,1.899448e+001
3.131882e+003,1.907220e+001
3.133810e+003,1.915164e+001
3.135739e+003,1.908894e+001
3.137667e+003,1.904143e+001
3.139595e+003,1.904615e+001
3.141524e+003,1.910760e+001
3.143453e+003,1.901708e+001
3.145381e+003,1.895535e+001
3.147310e+003,1.896649e+001
3.149238e+003,1.895646e+001
3.151167e+003,1.893485e+001
3.153095e+003,1.896096e+001
3.155023e+003,1.893676e+001
3.156952e+003,1.887446e+001
3.158881e+003,1.883194e+001
3.160809e+003,1.887906e+001
3.162738e+003,1.891597e+001
3.164666e+003,1.887508e+001
3.166594e+003,1.883831e+001
3.168523e+003,1.888001e+001
3.170452e+003,1.891162e+001
3.172380e+003,1.887490e+001
3.174309e+003,1.884317e+001
3.176237e+003,1.883214e+001
3.178166e+003,1.874234e+001
3.180094e+003,1.866683e+001
3.182022e+003,1.868893e+001
3.183951e+003,1.866656e+001
3.185880e+003,1.864471e+001
3.187808e+003,1.868840e+001
3.189737e+003,1.873142e+001
3.191665e+003,1.865517e+001
3.193594e+003,1.855992e+001
3.195522e+003,1.862209e+001
3.197450e+003,1.864363e+001
3.199379e+003,1.857512e+001
3.201308e+003,1.856877e+001
3.203236e+003,1.856474e+001
3.205165e+003,1.859107e+001
3.207093e+003,1.857488e+001
3.209021e+003,1.851046e+001
3.210950e+003,1.853232e+001
3.212878e+003,1.849921e+001
3.214807e+003,1.844515e+001
3.216736e+003,1.840557e+001
3.218664e+003,1.839877e+001
3.220593e+003,1.838077e+001
3.222521e+003,1.841640e+001
3.224449e+003,1.847443e+001
3.226378e+003,1.846789e+001
3.228306e+003,1.839726e+001
3.230235e+003,1.828971e+001
3.232164e+003,1.835884e+001
3.234092e+003,1.843024e+001
3.236021e+003,1.836094e+001
3.237949e+003,1.834127e+001
3.239877e+003,1.831264e+001
3.241806e+003,1.830110e+001
3.243734e+003,1.828377e+001
3.245663e+003,1.827125e+001
3.247592e+003,1.823498e+001
3.249520e+003,1.822351e+001
3.251448e+003,1.828338e+001
3.253377e+003,1.831587e+001
3.255305e+003,1.823380e+001
3.257234e+003,1.819391e+001
3.259162e+003,1.820576e+001
3.261091e+003,1.815937e+001
3.263020e+003,1.808315e+001
3.264948e+003,1.800970e+001
3.266876e+003,1.800999e+001
3.268805e+003,1.799260e+001
3.270733e+003,1.801217e+001
3.272662e+003,1.805152e+001
3.274591e+003,1.810416e+001
3.276519e+003,1.815702e+001
3.278448e+003,1.817884e+001
3.280376e+003,1.813887e+001
3.282304e+003,1.805183e+001
3.284233e+003,1.796256e+001
3.286161e+003,1.791463e+001
3.288090e+003,1.796888e+001
3.290019e+003,1.795797e+001
3.291947e+003,1.792936e+001
3.293875e+003,1.795006e+001
3.295804e+003,1.793126e+001
3.297732e+003,1.791381e+001
3.299661e+003,1.794998e+001
3.301589e+003,1.790268e+001
3.303518e+003,1.787033e+001
3.305447e+003,1.788679e+001
3.307375e+003,1.784770e+001
3.309303e+003,1.775970e+001
3.311232e+003,1.774190e+001
3.313160e+003,1.776602e+001
3.315089e+003,1.780018e+001
3.317017e+003,1.777942e+001
3.318946e+003,1.774315e+001
3.320875e+003,1.774070e+001
3.322803e+003,1.771515e+001
3.324731e+003,1.773970e+001
3.326660e+003,1.772889e+001
3.328588e+003,1.770813e+001
3.330517e+003,1.771275e+001
3.332445e+003,1.766134e+001
3.334374e+003,1.763638e+001
3.336302e+003,1.758318e+001
3.338231e+003,1.756857e+001
3.340159e+003,1.757020e+001
3.342088e+003,1.756471e+001
3.344016e+003,1.754798e+001
3.345945e+003,1.755154e+001
3.347873e+003,1.754072e+001
3.349802e+003,1.746554e+001
3.351730e+003,1.743397e+001
3.353659e+003,1.746756e+001
3.355587e+003,1.744743e+001
3.357516e+003,1.745372e+001
3.359444e+003,1.746713e+001
3.361373e+003,1.743752e+001
3.363302e+003,1.744354e+001
3.365230e+003,1.743855e+001
3.367158e+003,1.735921e+001
3.369087e+003,1.730176e+001
3.371015e+003,1.723690e+001
3.372944e+003,1.720223e+001
3.374872e+003,1.718675e+001
3.376801e+003,1.716858e+001
3.378729e+003,1.716382e+001
3.380658e+003,1.719785e+001
3.382586e+003,1.723154e+001
3.384515e+003,1.725595e+001
3.386443e+003,1.716348e+001
3.388372e+003,1.711670e+001
3.390300e+003,1.709120e+001
3.392229e+003,1.715784e+001
3.394157e+003,1.718941e+001
3.396086e+003,1.709547e+001
3.398014e+003,1.712399e+001
3.399943e+003,1.710636e+001
3.401871e+003,1.704518e+001
3.403800e+003,1.702388e+001
3.405728e+003,1.698684e+001
3.407657e+003,1.694283e+001
3.409585e+003,1.692737e+001
3.411514e+003,1.692962e+001
3.413442e+003,1.690729e+001
3.415371e+003,1.702773e+001
3.417299e+003,1.704207e+001
3.419228e+003,1.696354e+001
3.421156e+003,1.689732e+001
3.423085e+003,1.691551e+001
3.425013e+003,1.695190e+001
3.426942e+003,1.695549e+001
3.428870e+003,1.699041e+001
3.430799e+003,1.703836e+001
3.432727e+003,1.690285e+001
3.434656e+003,1.681684e+001
3.436584e+003,1.685230e+001
3.438513e+003,1.691312e+001
3.440441e+003,1.691025e+001
3.442370e+003,1.696366e+001
3.444298e+003,1.687781e+001
3.446227e+003,1.684639e+001
3.448155e+003,1.694711e+001
3.450084e+003,1.682840e+001
3.452012e+003,1.681736e+001
3.453941e+003,1.691490e+001
3.455869e+003,1.684029e+001
3.457798e+003,1.678184e+001
3.459726e+003,1.681294e+001
3.461655e+003,1.681757e+001
3.463583e+003,1.677637e+001
3.465512e+003,1.670160e+001
3.467440e+003,1.676493e+001
3.469369e+003,1.680184e+001
3.471297e+003,1.679471e+001
3.473226e+003,1.680501e+001
3.475154e+003,1.679004e+001
3.477083e+003,1.679642e+001
3.479011e+003,1.677531e+001
3.480940e+003,1.682243e+001
3.482868e+003,1.686810e+001
3.484797e+003,1.677619e+001
3.486725e+003,1.677401e+001
3.488654e+003,1.684129e+001
3.490582e+003,1.688103e+001
3.492511e+003,1.679634e+001
3.494439e+003,1.675325e+001
3.496368e+003,1.683655e+001
3.498296e+003,1.675372e+001
3.500225e+003,1.668929e+001
3.502153e+003,1.684548e+001
3.504082e+003,1.702530e+001
3.506010e+003,1.690041e+001
3.507939e+003,1.677967e+001
3.509867e+003,1.685535e+001
3.511796e+003,1.685276e+001
3.513724e+003,1.680620e+001
3.515653e+003,1.679726e+001
3.517581e+003,1.681395e+001
3.519510e+003,1.688643e+001
3.521438e+003,1.692840e+001
3.523367e+003,1.698430e+001
3.525295e+003,1.687307e+001
3.527224e+003,1.684484e+001
3.529152e+003,1.697278e+001
3.531081e+003,1.698515e+001
3.533009e+003,1.691428e+001
3.534938e+003,1.687849e+001
3.536866e+003,1.693536e+001
3.538795e+003,1.689662e+001
3.540723e+003,1.685992e+001
3.542652e+003,1.701297e+001
3.544580e+003,1.708779e+001
3.546509e+003,1.714246e+001
3.548437e+003,1.712584e+001
3.550366e+003,1.702553e+001
3.552294e+003,1.714692e+001
3.554223e+003,1.709774e+001
3.556151e+003,1.690116e+001
3.558080e+003,1.683792e+001
3.560008e+003,1.695228e+001
3.561937e+003,1.695983e+001
3.563865e+003,1.694012e+001
3.565794e+003,1.711768e+001
3.567722e+003,1.738892e+001
3.569651e+003,1.723790e+001
3.571579e+003,1.711548e+001
3.573508e+003,1.702812e+001
3.575436e+003,1.704429e+001
3.577365e+003,1.704572e+001
3.579293e+003,1.696198e+001
3.581222e+003,1.692686e+001
3.583150e+003,1.695975e+001
3.585079e+003,1.695889e+001
3.587007e+003,1.734692e+001
3.588936e+003,1.742446e+001
3.590864e+003,1.711666e+001
3.592793e+003,1.709904e+001
3.594721e+003,1.724227e+001
3.596650e+003,1.723618e+001
3.598578e+003,1.726599e+001
3.600507e+003,1.749347e+001
3.602435e+003,1.743571e+001
3.604364e+003,1.729243e+001
3.606292e+003,1.731092e+001
3.608221e+003,1.751672e+001
3.610149e+003,1.744735e+001
3.612078e+003,1.744783e+001
3.614006e+003,1.762814e+001
3.615935e+003,1.750108e+001
3.617863e+003,1.753151e+001
3.619792e+003,1.764665e+001
3.621720e+003,1.755283e+001
3.623649e+003,1.742238e+001
3.625577e+003,1.729648e+001
3.627506e+003,1.731567e+001
3.629434e+003,1.791372e+001
3.631363e+003,1.764447e+001
3.633291e+003,1.751422e+001
3.635220e+003,1.757646e+001
3.637148e+003,1.750798e+001
3.639077e+003,1.745741e+001
3.641005e+003,1.744753e+001
3.642934e+003,1.757751e+001
3.644862e+003,1.750430e+001
3.646791e+003,1.771036e+001
3.648719e+003,1.815366e+001
3.650648e+003,1.858401e+001
3.652576e+003,1.794485e+001
3.654505e+003,1.747294e+001
3.656433e+003,1.772142e+001
3.658362e+003,1.778918e+001
3.660290e+003,1.773177e+001
3.662219e+003,1.763613e+001
3.664147e+003,1.752999e+001
3.666076e+003,1.753815e+001
3.668004e+003,1.749870e+001
3.669933e+003,1.799789e+001
3.671861e+003,1.796110e+001
3.673790e+003,1.749050e+001
3.675718e+003,1.807284e+001
3.677647e+003,1.795863e+001
3.679575e+003,1.778136e+001
3.681504e+003,1.762109e+001
3.683432e+003,1.750356e+001
3.685361e+003,1.744606e+001
3.687289e+003,1.753703e+001
3.689218e+003,1.800652e+001
3.691146e+003,1.794186e+001
3.693075e+003,1.756585e+001
3.695003e+003,1.742255e+001
3.696932e+003,1.740892e+001
3.698860e+003,1.741277e+001
3.700789e+003,1.768239e+001
3.702717e+003,1.781046e+001
3.704646e+003,1.757183e+001
3.706574e+003,1.745767e+001
3.708503e+003,1.740475e+001
3.710431e+003,1.777055e+001
3.712360e+003,1.810320e+001
3.714288e+003,1.786837e+001
3.716217e+003,1.759517e+001
3.718145e+003,1.752106e+001
3.720074e+003,1.757999e+001
3.722002e+003,1.765607e+001
3.723931e+003,1.759399e+001
3.725859e+003,1.759571e+001
3.727788e+003,1.753144e+001
3.729716e+003,1.733675e+001
3.731645e+003,1.739363e+001
3.733573e+003,1.763280e+001
3.735502e+003,1.789559e+001
3.737430e+003,1.771327e+001
3.739359e+003,1.751886e+001
3.741287e+003,1.746019e+001
3.743216e+003,1.755729e+001
3.745144e+003,1.823668e+001
3.747073e+003,1.784480e+001
3.749001e+003,1.810226e+001
3.750930e+003,1.863035e+001
3.752858e+003,1.824725e+001
3.754787e+003,1.780520e+001
3.756715e+003,1.763956e+001
3.758644e+003,1.766759e+001
3.760572e+003,1.791109e+001
3.762500e+003,1.766997e+001
3.764429e+003,1.770590e+001
3.766358e+003,1.790152e+001
3.768286e+003,1.779730e+001
3.770215e+003,1.798291e+001
3.772143e+003,1.774174e+001
3.774072e+003,1.757584e+001
3.776000e+003,1.769892e+001
3.777928e+003,1.793851e+001
3.779857e+003,1.811481e+001
3.781786e+003,1.788972e+001
3.783714e+003,1.786015e+001
3.785643e+003,1.786166e+001
3.787571e+003,1.757607e+001
3.789500e+003,1.754932e+001
3.791428e+003,1.764518e+001
3.793356e+003,1.757885e+001
3.795285e+003,1.766735e+001
3.797214e+003,1.798400e+001
3.799142e+003,1.769755e+001
3.801071e+003,1.800108e+001
3.802999e+003,1.825335e+001
3.804927e+003,1.768940e+001
3.806856e+003,1.773995e+001
3.808785e+003,1.773033e+001
3.810713e+003,1.756412e+001
3.812642e+003,1.745032e+001
3.814570e+003,1.747111e+001
3.816499e+003,1.787835e+001
3.818427e+003,1.772736e+001
3.820355e+003,1.818235e+001
3.822284e+003,1.817994e+001
3.824213e+003,1.771414e+001
3.826141e+003,1.779813e+001
3.828070e+003,1.761926e+001
3.829998e+003,1.738984e+001
3.831927e+003,1.753416e+001
3.833855e+003,1.759925e+001
3.835783e+003,1.778726e+001
3.837712e+003,1.812198e+001
3.839641e+003,1.818633e+001
3.841569e+003,1.788356e+001
3.843498e+003,1.769170e+001
3.845426e+003,1.746633e+001
3.847354e+003,1.747784e+001
3.849283e+003,1.743907e+001
3.851211e+003,1.723418e+001
3.853140e+003,1.799927e+001
3.855069e+003,1.818894e+001
3.856997e+003,1.791325e+001
3.858926e+003,1.771858e+001
3.860854e+003,1.768649e+001
3.862782e+003,1.755741e+001
3.864711e+003,1.757553e+001
3.866639e+003,1.755056e+001
3.868568e+003,1.762848e+001
3.870497e+003,1.810804e+001
3.872425e+003,1.770841e+001
3.874354e+003,1.768291e+001
3.876282e+003,1.743038e+001
3.878210e+003,1.733224e+001
3.880139e+003,1.773808e+001
3.882067e+003,1.779556e+001
3.883996e+003,1.756715e+001
3.885925e+003,1.777710e+001
3.887853e+003,1.756417e+001
3.889781e+003,1.752648e+001
3.891710e+003,1.792713e+001
3.893638e+003,1.778298e+001
3.895567e+003,1.746213e+001
3.897495e+003,1.739760e+001
3.899424e+003,1.766455e+001
3.901353e+003,1.769920e+001
3.903281e+003,1.778427e+001
3.905209e+003,1.784202e+001
3.907138e+003,1.742677e+001
3.909066e+003,1.714817e+001
3.910995e+003,1.726382e+001
3.912924e+003,1.744905e+001
3.914852e+003,1.742854e+001
3.916781e+003,1.754348e+001
3.918709e+003,1.751071e+001
3.920637e+003,1.746185e+001
3.922566e+003,1.749607e+001
3.924494e+003,1.759175e+001
3.926423e+003,1.751928e+001
3.928352e+003,1.742531e+001
3.930280e+003,1.737367e+001
3.932208e+003,1.750886e+001
3.934137e+003,1.747983e+001
3.936065e+003,1.729554e+001
3.937994e+003,1.738500e+001
3.939922e+003,1.742689e+001
3.941851e+003,1.748368e+001
3.943780e+003,1.749063e+001
3.945708e+003,1.733646e+001
3.947636e+003,1.738347e+001
3.949565e+003,1.740184e+001
3.951493e+003,1.732008e+001
3.953422e+003,1.732007e+001
3.955350e+003,1.734467e+001
3.957279e+003,1.743667e+001
3.959208e+003,1.746044e+001
3.961136e+003,1.735485e+001
3.963064e+003,1.735196e+001
3.964993e+003,1.737997e+001
3.966921e+003,1.730728e+001
3.968850e+003,1.736159e+001
3.970778e+003,1.737114e+001
3.972707e+003,1.723769e+001
3.974635e+003,1.722307e+001
3.976564e+003,1.725146e+001
3.978492e+003,1.731006e+001
3.980421e+003,1.730663e+001
3.982349e+003,1.731448e+001
3.984278e+003,1.727245e+001
3.986206e+003,1.724262e+001
3.988135e+003,1.731644e+001
3.990063e+003,1.723360e+001
3.991992e+003,1.706459e+001
3.993920e+003,1.705007e+001
3.995849e+003,1.708609e+001
3.997777e+003,1.724967e+001
3.999706e+003,1.729814e+001
