3.991992e+002,2.404778e+001
4.011277e+002,2.778309e+001
4.030562e+002,2.964122e+001
4.049847e+002,3.072267e+001
4.069132e+002,3.124700e+001
4.088417e+002,3.071635e+001
4.107702e+002,3.109851e+001
4.126987e+002,3.237887e+001
4.146272e+002,3.263198e+001
4.165557e+002,3.328799e+001
4.184842e+002,3.519999e+001
4.204127e+002,3.366162e+001
4.223412e+002,3.188724e+001
4.242697e+002,3.089345e+001
4.261982e+002,3.024259e+001
4.281267e+002,2.966071e+001
4.300552e+002,2.871344e+001
4.319837e+002,2.724754e+001
4.339122e+002,2.652808e+001
4.358407e+002,2.541236e+001
4.377692e+002,2.440838e+001
4.396977e+002,2.356981e+001
4.416262e+002,2.254277e+001
4.435547e+002,2.125526e+001
4.454832e+002,2.019548e+001
4.474117e+002,1.888158e+001
4.493401e+002,1.817081e+001
4.512686e+002,1.737133e+001
4.531971e+002,1.611460e+001
4.551256e+002,1.535448e+001
4.570541e+002,1.530525e+001
4.589826e+002,1.499950e+001
4.609111e+002,1.464570e+001
4.628396e+002,1.448089e+001
4.647681e+002,1.441771e+001
4.666966e+002,1.441115e+001
4.686251e+002,1.444850e+001
4.705536e+002,1.486353e+001
4.724821e+002,1.571253e+001
4.744106e+002,1.607383e+001
4.763391e+002,1.658408e+001
4.782676e+002,1.708855e+001
4.801961e+002,1.769781e+001
4.821246e+002,1.825378e+001
4.840531e+002,1.911101e+001
4.859816e+002,1.983310e+001
4.879101e+002,1.998899e+001
4.898386e+002,1.968947e+001
4.917671e+002,1.954825e+001
4.936956e+002,1.983348e+001
4.956241e+002,2.003127e+001
4.975526e+002,1.991832e+001
4.994811e+002,1.986070e+001
5.014096e+002,1.974619e+001
5.033381e+002,1.914558e+001
5.052666e+002,1.866822e+001
5.071951e+002,1.847136e+001
5.091236e+002,1.830881e+001
5.110521e+002,1.807100e+001
5.129806e+002,1.757487e+001
5.149091e+002,1.675387e+001
5.168376e+002,1.615251e+001
5.187661e+002,1.598532e+001
5.206946e+002,1.566065e+001
5.226231e+002,1.509696e+001
5.245516e+002,1.462149e+001
5.264801e+002,1.419314e+001
5.284086e+002,1.359379e+001
5.303371e+002,1.334064e+001
5.322656e+002,1.310614e+001
5.341941e+002,1.263001e+001
5.361226e+002,1.227450e+001
5.380511e+002,1.209352e+001
5.399796e+002,1.187646e+001
5.419081e+002,1.151278e+001
5.438365e+002,1.134787e+001
5.457651e+002,1.132514e+001
5.476936e+002,1.124024e+001
5.496221e+002,1.121363e+001
5.515506e+002,1.121089e+001
5.534791e+002,1.121962e+001
5.554076e+002,1.110491e+001
5.573361e+002,1.111619e+001
5.592646e+002,1.122770e+001
5.611931e+002,1.126546e+001
5.631216e+002,1.124890e+001
5.650500e+002,1.127046e+001
5.669786e+002,1.143328e+001
5.689070e+002,1.156714e+001
5.708356e+002,1.154244e+001
5.727640e+002,1.158877e+001
5.746926e+002,1.160559e+001
5.766210e+002,1.177182e+001
5.785496e+002,1.209606e+001
5.804780e+002,1.248420e+001
5.824066e+002,1.294361e+001
5.843350e+002,1.334499e+001
5.862635e+002,1.379949e+001
5.881920e+002,1.448327e+001
5.901205e+002,1.503973e+001
5.920490e+002,1.564949e+001
5.939775e+002,1.617883e+001
5.959060e+002,1.684407e+001
5.978345e+002,1.747308e+001
5.997631e+002,1.803984e+001
6.016915e+002,1.859846e+001
6.036201e+002,1.924486e+001
6.055485e+002,1.988879e+001
6.074771e+002,2.033910e+001
6.094055e+002,2.084313e+001
6.113340e+002,2.145242e+001
6.132625e+002,2.200028e+001
6.151910e+002,2.255717e+001
6.171195e+002,2.309042e+001
6.190480e+002,2.365291e+001
6.209765e+002,2.414986e+001
6.229050e+002,2.472140e+001
6.248335e+002,2.517681e+001
6.267620e+002,2.572558e+001
6.286905e+002,2.618132e+001
6.306190e+002,2.656546e+001
6.325475e+002,2.689634e+001
6.344760e+002,2.725395e+001
6.364045e+002,2.751924e+001
6.383330e+002,2.771489e+001
6.402615e+002,2.770955e+001
6.421900e+002,2.779275e+001
6.441185e+002,2.787004e+001
6.460470e+002,2.786599e+001
6.479755e+002,2.758766e+001
6.499040e+002,2.728272e+001
6.518325e+002,2.686877e+001
6.537610e+002,2.634314e+001
6.556895e+002,2.584985e+001
6.576180e+002,2.541195e+001
6.595465e+002,2.502943e+001
6.614750e+002,2.457478e+001
6.634035e+002,2.420889e+001
6.653320e+002,2.413848e+001
6.672605e+002,2.378146e+001
6.691890e+002,2.383812e+001
6.711175e+002,2.432670e+001
6.730460e+002,2.450019e+001
6.749745e+002,2.472944e+001
6.769030e+002,2.497857e+001
6.788315e+002,2.524162e+001
6.807599e+002,2.574891e+001
6.826885e+002,2.615152e+001
6.846169e+002,2.647489e+001
6.865455e+002,2.672835e+001
6.884739e+002,2.708538e+001
6.904025e+002,2.735039e+001
6.923309e+002,2.753636e+001
6.942595e+002,2.766861e+001
6.961880e+002,2.786353e+001
6.981165e+002,2.806452e+001
7.000450e+002,2.829572e+001
7.019734e+002,2.837008e+001
7.039020e+002,2.862735e+001
7.058304e+002,2.892926e+001
7.077590e+002,2.921082e+001
7.096874e+002,2.944476e+001
7.116160e+002,2.961880e+001
7.135444e+002,2.979478e+001
7.154730e+002,3.002911e+001
7.174014e+002,3.021098e+001
7.193300e+002,3.035308e+001
7.212584e+002,3.056452e+001
7.231870e+002,3.087974e+001
7.251154e+002,3.111705e+001
7.270439e+002,3.149940e+001
7.289724e+002,3.184418e+001
7.309009e+002,3.199871e+001
7.328294e+002,3.214466e+001
7.347579e+002,3.238173e+001
7.366864e+002,3.259435e+001
7.386149e+002,3.289391e+001
7.405434e+002,3.316489e+001
7.424719e+002,3.347978e+001
7.444004e+002,3.371217e+001
7.463289e+002,3.399338e+001
7.482574e+002,3.438984e+001
7.501859e+002,3.478048e+001
7.521144e+002,3.504973e+001
7.540429e+002,3.542983e+001
7.559714e+002,3.581025e+001
7.578999e+002,3.620988e+001
7.598284e+002,3.655396e+001
7.617569e+002,3.701469e+001
7.636854e+002,3.747826e+001
7.656139e+002,3.794304e+001
7.675424e+002,3.836699e+001
7.694709e+002,3.883149e+001
7.713994e+002,3.932090e+001
7.733279e+002,3.982942e+001
7.752564e+002,4.027614e+001
7.771849e+002,4.069302e+001
7.791134e+002,4.109184e+001
7.810419e+002,4.163501e+001
7.829704e+002,4.210881e+001
7.848989e+002,4.252803e+001
7.868274e+002,4.286971e+001
7.887559e+002,4.334054e+001
7.906844e+002,4.373713e+001
7.926129e+002,4.422481e+001
7.945414e+002,4.471763e+001
7.964699e+002,4.509499e+001
7.983984e+002,4.542324e+001
8.003269e+002,4.575218e+001
8.022554e+002,4.601825e+001
8.041839e+002,4.641589e+001
8.061124e+002,4.675642e+001
8.080409e+002,4.706974e+001
8.099694e+002,4.735995e+001
8.118979e+002,4.766626e+001
8.138264e+002,4.787322e+001
8.157549e+002,4.805915e+001
8.176833e+002,4.817088e+001
8.196119e+002,4.830618e+001
8.215403e+002,4.837698e+001
8.234689e+002,4.845364e+001
8.253973e+002,4.840130e+001
8.273259e+002,4.831181e+001
8.292543e+002,4.821816e+001
8.311829e+002,4.805395e+001
8.331113e+002,4.782314e+001
8.350399e+002,4.759854e+001
8.369683e+002,4.723203e+001
8.388969e+002,4.692278e+001
8.408253e+002,4.658456e+001
8.427538e+002,4.617749e+001
8.446824e+002,4.569296e+001
8.466108e+002,4.534206e+001
8.485394e+002,4.497910e+001
8.504678e+002,4.462524e+001
8.523964e+002,4.417457e+001
8.543248e+002,4.371468e+001
8.562534e+002,4.322629e+001
8.581818e+002,4.273305e+001
8.601104e+002,4.224435e+001
8.620388e+002,4.165313e+001
8.639673e+002,4.091258e+001
8.658958e+002,4.019386e+001
8.678243e+002,3.944942e+001
8.697528e+002,3.865795e+001
8.716813e+002,3.772459e+001
8.736098e+002,3.676566e+001
8.755383e+002,3.578242e+001
8.774668e+002,3.480338e+001
8.793953e+002,3.377536e+001
8.813238e+002,3.266881e+001
8.832523e+002,3.148227e+001
8.851808e+002,3.028821e+001
8.871093e+002,2.914969e+001
8.890378e+002,2.804619e+001
8.909663e+002,2.682736e+001
8.928948e+002,2.563555e+001
8.948233e+002,2.444705e+001
8.967518e+002,2.329047e+001
8.986803e+002,2.227511e+001
9.006088e+002,2.130694e+001
9.025373e+002,2.027552e+001
9.044658e+002,1.926027e+001
9.063943e+002,1.828585e+001
9.083228e+002,1.748863e+001
9.102513e+002,1.669667e+001
9.121798e+002,1.590804e+001
9.141083e+002,1.525198e+001
9.160368e+002,1.461712e+001
9.179653e+002,1.395178e+001
9.198938e+002,1.338567e+001
9.218223e+002,1.290641e+001
9.237508e+002,1.250710e+001
9.256793e+002,1.213026e+001
9.276078e+002,1.182132e+001
9.295363e+002,1.156933e+001
9.314648e+002,1.133410e+001
9.333932e+002,1.106886e+001
9.353218e+002,1.090007e+001
9.372502e+002,1.075513e+001
9.391788e+002,1.066983e+001
9.411072e+002,1.053832e+001
9.430358e+002,1.041472e+001
9.449643e+002,1.037181e+001
9.468928e+002,1.033723e+001
9.488213e+002,1.030172e+001
9.507498e+002,1.024407e+001
9.526783e+002,1.017441e+001
9.546068e+002,1.014147e+001
9.565353e+002,1.012461e+001
9.584637e+002,1.012295e+001
9.603923e+002,1.004611e+001
9.623207e+002,1.001786e+001
9.642493e+002,1.003576e+001
9.661777e+002,1.003214e+001
9.681063e+002,1.001974e+001
9.700347e+002,1.004267e+001
9.719633e+002,1.004732e+001
9.738917e+002,1.005041e+001
9.758203e+002,1.003848e+001
9.777487e+002,1.004249e+001
9.796772e+002,1.004395e+001
9.816057e+002,1.007260e+001
9.835342e+002,1.005899e+001
9.854627e+002,1.000000e+001
9.873912e+002,1.000643e+001
9.893197e+002,1.006538e+001
9.912482e+002,1.003516e+001
9.931768e+002,1.008417e+001
9.951052e+002,1.011791e+001
9.970338e+002,1.006849e+001
9.989622e+002,1.007043e+001
1.000891e+003,1.012365e+001
1.002819e+003,1.005131e+001
1.004748e+003,1.000000e+001
1.006676e+003,1.000287e+001
1.008605e+003,1.002513e+001
1.010533e+003,1.001748e+001
1.012462e+003,1.005058e+001
1.014390e+003,1.005573e+001
1.016319e+003,1.008662e+001
1.018247e+003,1.010974e+001
1.020176e+003,1.010479e+001
1.022104e+003,1.008955e+001
1.024033e+003,1.008316e+001
1.025961e+003,1.004834e+001
1.027890e+003,1.009410e+001
1.029818e+003,1.014110e+001
1.031747e+003,1.009798e+001
1.033675e+003,1.004245e+001
1.035604e+003,1.003769e+001
1.037532e+003,1.007862e+001
1.039461e+003,1.009889e+001
1.041389e+003,1.008191e+001
1.043318e+003,1.004837e+001
1.045246e+003,1.000000e+001
1.047175e+003,1.000000e+001
1.049103e+003,1.003286e+001
1.051032e+003,1.007121e+001
1.052960e+003,1.007441e+001
1.054889e+003,1.007093e+001
1.056817e+003,1.003446e+001
1.058746e+003,1.000000e+001
1.060674e+003,1.000586e+001
1.062603e+003,1.003053e+001
1.064531e+003,1.005195e+001
1.066460e+003,1.005628e+001
1.068388e+003,1.007176e+001
1.070317e+003,1.004013e+001
1.072245e+003,1.001665e+001
1.074174e+003,1.003846e+001
1.076102e+003,1.005827e+001
1.078031e+003,1.005352e+001
1.079959e+003,1.012007e+001
1.081888e+003,1.017209e+001
1.083816e+003,1.016862e+001
1.085745e+003,1.015510e+001
1.087673e+003,1.017014e+001
1.089602e+003,1.018228e+001
1.091530e+003,1.013260e+001
1.093459e+003,1.011266e+001
1.095387e+003,1.014514e+001
1.097316e+003,1.015906e+001
1.099244e+003,1.017359e+001
1.101173e+003,1.019370e+001
1.103101e+003,1.019785e+001
1.105030e+003,1.020695e+001
1.106958e+003,1.021670e+001
1.108887e+003,1.021395e+001
1.110815e+003,1.021893e+001
1.112744e+003,1.023973e+001
1.114672e+003,1.028580e+001
1.116601e+003,1.029594e+001
1.118529e+003,1.029908e+001
1.120458e+003,1.031976e+001
1.122386e+003,1.035872e+001
1.124315e+003,1.033116e+001
1.126243e+003,1.031336e+001
1.128172e+003,1.033794e+001
1.130100e+003,1.039185e+001
1.132029e+003,1.047649e+001
1.133957e+003,1.050117e+001
1.135886e+003,1.051802e+001
1.137814e+003,1.054578e+001
1.139743e+003,1.055385e+001
1.141671e+003,1.058601e+001
1.143600e+003,1.059614e+001
1.145528e+003,1.067186e+001
1.147457e+003,1.074369e+001
1.149385e+003,1.077981e+001
1.151314e+003,1.083599e+001
1.153242e+003,1.084790e+001
1.155171e+003,1.089836e+001
1.157099e+003,1.097807e+001
1.159028e+003,1.101668e+001
1.160956e+003,1.104394e+001
1.162885e+003,1.105381e+001
1.164813e+003,1.111309e+001
1.166742e+003,1.119547e+001
1.168670e+003,1.128386e+001
1.170599e+003,1.135750e+001
1.172527e+003,1.143586e+001
1.174456e+003,1.150280e+001
1.176384e+003,1.156934e+001
1.178313e+003,1.154705e+001
1.180241e+003,1.151488e+001
1.182170e+003,1.161006e+001
1.184098e+003,1.183174e+001
1.186027e+003,1.197423e+001
1.187955e+003,1.205028e+001
1.189884e+003,1.206738e+001
1.191812e+003,1.215694e+001
1.193741e+003,1.227259e+001
1.195669e+003,1.239871e+001
1.197598e+003,1.243928e+001
1.199526e+003,1.251457e+001
1.201455e+003,1.258941e+001
1.203383e+003,1.270698e+001
1.205312e+003,1.283049e+001
1.207240e+003,1.299043e+001
1.209169e+003,1.308768e+001
1.211097e+003,1.311815e+001
1.213026e+003,1.319840e+001
1.214954e+003,1.332153e+001
1.216883e+003,1.344858e+001
1.218811e+003,1.360120e+001
1.220740e+003,1.369654e+001
1.222668e+003,1.377002e+001
1.224597e+003,1.390068e+001
1.226525e+003,1.403071e+001
1.228453e+003,1.412285e+001
1.230382e+003,1.429029e+001
1.232311e+003,1.444300e+001
1.234239e+003,1.457133e+001
1.236167e+003,1.467753e+001
1.238096e+003,1.485927e+001
1.240025e+003,1.504146e+001
1.241953e+003,1.521763e+001
1.243882e+003,1.536287e+001
1.245810e+003,1.550644e+001
1.247739e+003,1.563256e+001
1.249667e+003,1.579000e+001
1.251596e+003,1.594951e+001
1.253524e+003,1.613632e+001
1.255453e+003,1.628541e+001
1.257381e+003,1.646672e+001
1.259310e+003,1.663227e+001
1.261238e+003,1.678578e+001
1.263167e+003,1.695963e+001
1.265095e+003,1.719081e+001
1.267024e+003,1.738154e+001
1.268952e+003,1.750959e+001
1.270880e+003,1.768876e+001
1.272809e+003,1.785796e+001
1.274738e+003,1.799354e+001
1.276666e+003,1.819078e+001
1.278594e+003,1.840580e+001
1.280523e+003,1.857514e+001
1.282452e+003,1.870185e+001
1.284380e+003,1.887227e+001
1.286308e+003,1.903606e+001
1.288237e+003,1.922518e+001
1.290166e+003,1.942824e+001
1.292094e+003,1.963076e+001
1.294022e+003,1.979131e+001
1.295951e+003,1.997010e+001
1.297880e+003,2.015354e+001
1.299808e+003,2.036483e+001
1.301736e+003,2.052303e+001
1.303665e+003,2.064442e+001
1.305594e+003,2.079962e+001
1.307522e+003,2.103074e+001
1.309450e+003,2.120505e+001
1.311379e+003,2.136267e+001
1.313307e+003,2.152721e+001
1.315236e+003,2.174382e+001
1.317164e+003,2.197816e+001
1.319093e+003,2.218409e+001
1.321021e+003,2.234046e+001
1.322950e+003,2.251621e+001
1.324878e+003,2.269921e+001
1.326807e+003,2.291700e+001
1.328735e+003,2.308972e+001
1.330664e+003,2.325901e+001
1.332592e+003,2.343428e+001
1.334521e+003,2.363649e+001
1.336449e+003,2.378613e+001
1.338378e+003,2.393689e+001
1.340307e+003,2.412810e+001
1.342235e+003,2.431421e+001
1.344163e+003,2.445489e+001
1.346092e+003,2.458691e+001
1.348021e+003,2.470987e+001
1.349949e+003,2.486294e+001
1.351877e+003,2.501525e+001
1.353806e+003,2.515326e+001
1.355734e+003,2.526006e+001
1.357663e+003,2.539175e+001
1.359591e+003,2.546433e+001
1.361520e+003,2.555845e+001
1.363448e+003,2.571780e+001
1.365377e+003,2.580615e+001
1.367305e+003,2.589174e+001
1.369234e+003,2.607018e+001
1.371162e+003,2.618173e+001
1.373091e+003,2.629223e+001
1.375019e+003,2.646712e+001
1.376948e+003,2.664281e+001
1.378876e+003,2.682420e+001
1.380805e+003,2.707055e+001
1.382733e+003,2.725219e+001
1.384662e+003,2.741958e+001
1.386590e+003,2.762081e+001
1.388519e+003,2.785605e+001
1.390447e+003,2.802543e+001
1.392376e+003,2.822165e+001
1.394304e+003,2.846311e+001
1.396233e+003,2.874054e+001
1.398161e+003,2.890118e+001
1.400090e+003,2.913048e+001
1.402018e+003,2.933800e+001
1.403947e+003,2.957908e+001
1.405875e+003,2.985260e+001
1.407804e+003,3.003505e+001
1.409732e+003,3.016154e+001
1.411661e+003,3.039065e+001
1.413589e+003,3.065769e+001
1.415518e+003,3.084863e+001
1.417446e+003,3.098709e+001
1.419375e+003,3.129275e+001
1.421303e+003,3.149425e+001
1.423232e+003,3.167321e+001
1.425160e+003,3.192785e+001
1.427089e+003,3.215439e+001
1.429017e+003,3.237112e+001
1.430946e+003,3.259588e+001
1.432874e+003,3.276774e+001
1.434803e+003,3.294960e+001
1.436731e+003,3.321919e+001
1.438660e+003,3.348428e+001
1.440588e+003,3.365363e+001
1.442517e+003,3.384470e+001
1.444445e+003,3.405158e+001
1.446374e+003,3.426682e+001
1.448302e+003,3.455359e+001
1.450231e+003,3.477288e+001
1.452159e+003,3.492561e+001
1.454088e+003,3.506744e+001
1.456016e+003,3.525925e+001
1.457945e+003,3.566959e+001
1.459873e+003,3.589842e+001
1.461802e+003,3.606414e+001
1.463730e+003,3.623188e+001
1.465659e+003,3.655122e+001
1.467587e+003,3.675115e+001
1.469516e+003,3.687942e+001
1.471444e+003,3.704501e+001
1.473373e+003,3.733860e+001
1.475301e+003,3.752742e+001
1.477230e+003,3.775623e+001
1.479158e+003,3.794286e+001
1.481087e+003,3.814690e+001
1.483015e+003,3.833390e+001
1.484944e+003,3.845094e+001
1.486872e+003,3.859361e+001
1.488801e+003,3.877306e+001
1.490729e+003,3.902606e+001
1.492658e+003,3.919668e+001
1.494586e+003,3.930836e+001
1.496515e+003,3.946009e+001
1.498443e+003,3.963478e+001
1.500372e+003,3.980700e+001
1.502300e+003,3.995243e+001
1.504229e+003,4.007264e+001
1.506157e+003,4.030107e+001
1.508086e+003,4.050011e+001
1.510014e+003,4.051993e+001
1.511943e+003,4.067518e+001
1.513871e+003,4.082399e+001
1.515800e+003,4.097926e+001
1.517728e+003,4.123650e+001
1.519657e+003,4.125685e+001
1.521585e+003,4.135963e+001
1.523514e+003,4.160907e+001
1.525442e+003,4.180384e+001
1.527371e+003,4.198499e+001
1.529299e+003,4.208683e+001
1.531228e+003,4.219487e+001
1.533156e+003,4.243367e+001
1.535085e+003,4.258552e+001
1.537013e+003,4.262688e+001
1.538942e+003,4.289574e+001
1.540870e+003,4.332599e+001
1.542799e+003,4.328257e+001
1.544727e+003,4.342649e+001
1.546656e+003,4.358582e+001
1.548584e+003,4.368898e+001
1.550513e+003,4.387138e+001
1.552441e+003,4.400287e+001
1.554370e+003,4.418006e+001
1.556298e+003,4.432739e+001
1.558227e+003,4.438943e+001
1.560155e+003,4.458528e+001
1.562084e+003,4.461821e+001
1.564012e+003,4.473524e+001
1.565941e+003,4.486869e+001
1.567869e+003,4.494849e+001
1.569798e+003,4.506950e+001
1.571726e+003,4.515296e+001
1.573655e+003,4.507652e+001
1.575583e+003,4.508012e+001
1.577512e+003,4.522136e+001
1.579440e+003,4.524101e+001
1.581369e+003,4.516183e+001
1.583297e+003,4.508157e+001
1.585226e+003,4.496408e+001
1.587154e+003,4.487970e+001
1.589083e+003,4.471680e+001
1.591011e+003,4.452305e+001
1.592940e+003,4.424532e+001
1.594868e+003,4.392537e+001
1.596797e+003,4.349582e+001
1.598725e+003,4.308187e+001
1.600654e+003,4.253906e+001
1.602582e+003,4.195099e+001
1.604511e+003,4.127289e+001
1.606439e+003,4.059240e+001
1.608368e+003,3.970294e+001
1.610296e+003,3.884436e+001
1.612225e+003,3.795744e+001
1.614153e+003,3.722167e+001
1.616082e+003,3.610856e+001
1.618010e+003,3.476006e+001
1.619939e+003,3.394445e+001
1.621867e+003,3.319750e+001
1.623796e+003,3.200784e+001
1.625724e+003,3.128606e+001
1.627653e+003,3.043403e+001
1.629581e+003,2.963702e+001
1.631510e+003,2.902651e+001
1.633438e+003,2.860997e+001
1.635367e+003,2.796909e+001
1.637295e+003,2.735798e+001
1.639224e+003,2.695740e+001
1.641152e+003,2.668337e+001
1.643081e+003,2.638403e+001
1.645009e+003,2.627202e+001
1.646938e+003,2.597167e+001
1.648866e+003,2.585722e+001
1.650795e+003,2.581329e+001
1.652723e+003,2.586163e+001
1.654652e+003,2.564881e+001
1.656580e+003,2.580585e+001
1.658509e+003,2.590200e+001
1.660437e+003,2.608093e+001
1.662366e+003,2.624336e+001
1.664294e+003,2.654873e+001
1.666223e+003,2.678603e+001
1.668151e+003,2.712136e+001
1.670080e+003,2.763894e+001
1.672008e+003,2.813337e+001
1.673937e+003,2.848912e+001
1.675865e+003,2.912185e+001
1.677794e+003,2.959752e+001
1.679722e+003,3.016370e+001
1.681651e+003,3.065977e+001
1.683579e+003,3.136129e+001
1.685508e+003,3.250927e+001
1.687436e+003,3.298237e+001
1.689365e+003,3.365848e+001
1.691293e+003,3.448785e+001
1.693222e+003,3.503049e+001
1.695150e+003,3.579763e+001
1.697079e+003,3.687886e+001
1.699007e+003,3.750629e+001
1.700936e+003,3.878636e+001
1.702864e+003,3.938048e+001
1.704793e+003,4.004687e+001
1.706721e+003,4.110542e+001
1.708650e+003,4.186554e+001
1.710578e+003,4.263812e+001
1.712507e+003,4.335395e+001
1.714435e+003,4.404163e+001
1.716364e+003,4.491129e+001
1.718292e+003,4.606108e+001
1.720221e+003,4.675702e+001
1.722149e+003,4.730662e+001
1.724078e+003,4.809179e+001
1.726006e+003,4.878048e+001
1.727935e+003,4.939034e+001
1.729863e+003,5.006498e+001
1.731792e+003,5.062606e+001
1.733720e+003,5.134379e+001
1.735649e+003,5.229528e+001
1.737577e+003,5.264846e+001
1.739506e+003,5.333023e+001
1.741434e+003,5.397496e+001
1.743363e+003,5.454066e+001
1.745291e+003,5.505430e+001
1.747220e+003,5.556945e+001
1.749148e+003,5.613700e+001
1.751077e+003,5.677253e+001
1.753005e+003,5.725449e+001
1.754934e+003,5.761409e+001
1.756862e+003,5.816488e+001
1.758791e+003,5.864503e+001
1.760719e+003,5.901346e+001
1.762648e+003,5.967527e+001
1.764576e+003,6.007613e+001
1.766505e+003,6.044290e+001
1.768433e+003,6.087621e+001
1.770362e+003,6.122568e+001
1.772290e+003,6.174450e+001
1.774219e+003,6.225177e+001
1.776147e+003,6.257638e+001
1.778076e+003,6.295575e+001
1.780004e+003,6.338821e+001
1.781933e+003,6.385984e+001
1.783861e+003,6.416754e+001
1.785790e+003,6.462141e+001
1.787718e+003,6.493750e+001
1.789647e+003,6.518130e+001
1.791575e+003,6.557021e+001
1.793504e+003,6.615066e+001
1.795432e+003,6.641054e+001
1.797361e+003,6.673932e+001
1.799289e+003,6.706473e+001
1.801218e+003,6.749623e+001
1.803146e+003,6.781828e+001
1.805075e+003,6.816673e+001
1.807003e+003,6.846947e+001
1.808932e+003,6.879579e+001
1.810860e+003,6.914129e+001
1.812789e+003,6.949841e+001
1.814717e+003,6.977512e+001
1.816646e+003,7.013347e+001
1.818574e+003,7.041505e+001
1.820503e+003,7.070127e+001
1.822431e+003,7.091550e+001
1.824360e+003,7.125295e+001
1.826288e+003,7.158809e+001
1.828217e+003,7.184323e+001
1.830145e+003,7.225187e+001
1.832074e+003,7.259715e+001
1.834002e+003,7.279994e+001
1.835931e+003,7.309097e+001
1.837859e+003,7.335185e+001
1.839788e+003,7.364311e+001
1.841716e+003,7.381511e+001
1.843645e+003,7.422918e+001
1.845573e+003,7.458294e+001
1.847502e+003,7.479295e+001
1.849430e+003,7.504612e+001
1.851359e+003,7.529515e+001
1.853287e+003,7.552502e+001
1.855216e+003,7.583823e+001
1.857144e+003,7.607007e+001
1.859073e+003,7.632917e+001
1.861001e+003,7.656945e+001
1.862930e+003,7.680460e+001
1.864858e+003,7.695567e+001
1.866786e+003,7.716113e+001
1.868715e+003,7.751172e+001
1.870644e+003,7.786520e+001
1.872572e+003,7.800571e+001
1.874500e+003,7.820601e+001
1.876429e+003,7.841993e+001
1.878358e+003,7.868966e+001
1.880286e+003,7.889742e+001
1.882215e+003,7.910373e+001
1.884143e+003,7.924335e+001
1.886072e+003,7.948454e+001
1.888000e+003,7.965610e+001
1.889929e+003,7.993913e+001
1.891857e+003,8.011652e+001
1.893786e+003,8.030348e+001
1.895714e+003,8.050471e+001
1.897643e+003,8.068980e+001
1.899571e+003,8.080050e+001
1.901500e+003,8.097746e+001
1.903428e+003,8.117004e+001
1.905357e+003,8.136745e+001
1.907285e+003,8.150822e+001
1.909214e+003,8.172928e+001
1.911142e+003,8.189585e+001
1.913071e+003,8.202822e+001
1.914999e+003,8.213264e+001
1.916927e+003,8.230374e+001
1.918856e+003,8.249108e+001
1.920785e+003,8.260307e+001
1.922713e+003,8.271034e+001
1.924641e+003,8.290889e+001
1.926570e+003,8.300511e+001
1.928499e+003,8.316485e+001
1.930427e+003,8.329054e+001
1.932355e+003,8.346341e+001
1.934284e+003,8.358205e+001
1.936213e+003,8.368913e+001
1.938141e+003,8.376878e+001
1.940069e+003,8.385702e+001
1.941998e+003,8.400012e+001
1.943927e+003,8.418694e+001
1.945855e+003,8.422573e+001
1.947783e+003,8.435555e+001
1.949712e+003,8.444643e+001
1.951641e+003,8.459140e+001
1.953569e+003,8.467137e+001
1.955497e+003,8.481616e+001
1.957426e+003,8.491606e+001
1.959354e+003,8.500501e+001
1.961283e+003,8.503486e+001
1.963211e+003,8.517712e+001
1.965140e+003,8.529664e+001
1.967068e+003,8.545414e+001
1.968997e+003,8.550098e+001
1.970925e+003,8.559166e+001
1.972854e+003,8.566562e+001
1.974782e+003,8.575729e+001
1.976711e+003,8.583114e+001
1.978639e+003,8.594729e+001
1.980568e+003,8.599973e+001
1.982496e+003,8.611504e+001
1.984425e+003,8.618070e+001
1.986354e+003,8.624769e+001
1.988282e+003,8.631138e+001
1.990210e+003,8.642506e+001
1.992139e+003,8.649975e+001
1.994068e+003,8.659821e+001
1.995996e+003,8.662922e+001
1.997924e+003,8.669921e+001
1.999853e+003,8.673798e+001
2.001781e+003,8.684918e+001
2.003710e+003,8.691593e+001
2.005638e+003,8.700050e+001
2.007567e+003,8.701746e+001
2.009495e+003,8.709998e+001
2.011424e+003,8.716049e+001
2.013352e+003,8.721441e+001
2.015281e+003,8.722829e+001
2.017209e+003,8.732067e+001
2.019138e+003,8.737825e+001
2.021066e+003,8.745950e+001
2.022995e+003,8.749012e+001
2.024923e+003,8.754278e+001
2.026852e+003,8.756053e+001
2.028780e+003,8.763727e+001
2.030709e+003,8.769643e+001
2.032637e+003,8.777390e+001
2.034566e+003,8.778497e+001
2.036494e+003,8.781773e+001
2.038423e+003,8.780424e+001
2.040351e+003,8.784401e+001
2.042280e+003,8.787436e+001
2.044208e+003,8.796133e+001
2.046137e+003,8.801211e+001
2.048065e+003,8.804340e+001
2.049994e+003,8.804219e+001
2.051922e+003,8.808272e+001
2.053851e+003,8.806236e+001
2.055779e+003,8.806906e+001
2.057708e+003,8.807533e+001
2.059636e+003,8.817018e+001
2.061565e+003,8.818796e+001
2.063493e+003,8.824457e+001
2.065422e+003,8.828009e+001
2.067350e+003,8.829956e+001
2.069279e+003,8.826128e+001
2.071207e+003,8.831574e+001
2.073136e+003,8.833404e+001
2.075064e+003,8.834720e+001
2.076993e+003,8.837398e+001
2.078921e+003,8.842721e+001
2.080850e+003,8.844649e+001
2.082778e+003,8.853635e+001
2.084707e+003,8.853228e+001
2.086635e+003,8.853699e+001
2.088564e+003,8.855449e+001
2.090492e+003,8.863048e+001
2.092421e+003,8.864684e+001
2.094349e+003,8.869189e+001
2.096278e+003,8.872457e+001
2.098206e+003,8.879924e+001
2.100135e+003,8.883260e+001
2.102063e+003,8.888278e+001
2.103992e+003,8.890387e+001
2.105920e+003,8.896643e+001
2.107849e+003,8.898305e+001
2.109777e+003,8.905168e+001
2.111706e+003,8.911084e+001
2.113634e+003,8.916996e+001
2.115563e+003,8.918764e+001
2.117491e+003,8.922997e+001
2.119420e+003,8.926168e+001
2.121348e+003,8.934225e+001
2.123277e+003,8.938489e+001
2.125205e+003,8.946837e+001
2.127134e+003,8.948307e+001
2.129062e+003,8.954372e+001
2.130991e+003,8.959148e+001
2.132919e+003,8.966188e+001
2.134848e+003,8.969755e+001
2.136776e+003,8.975282e+001
2.138705e+003,8.977155e+001
2.140633e+003,8.986445e+001
2.142562e+003,8.990651e+001
2.144490e+003,9.000584e+001
2.146419e+003,9.003214e+001
2.148347e+003,9.006057e+001
2.150276e+003,9.009339e+001
2.152204e+003,9.017123e+001
2.154133e+003,9.020164e+001
2.156061e+003,9.028742e+001
2.157990e+003,9.031872e+001
2.159918e+003,9.038412e+001
2.161847e+003,9.046955e+001
2.163775e+003,9.058055e+001
2.165704e+003,9.060780e+001
2.167632e+003,9.063382e+001
2.169561e+003,9.064261e+001
2.171489e+003,9.075208e+001
2.173418e+003,9.084093e+001
2.175346e+003,9.094049e+001
2.177275e+003,9.101299e+001
2.179203e+003,9.111453e+001
2.181132e+003,9.116117e+001
2.183060e+003,9.121755e+001
2.184989e+003,9.125839e+001
2.186917e+003,9.134541e+001
2.188846e+003,9.141827e+001
2.190774e+003,9.151187e+001
2.192703e+003,9.154433e+001
2.194631e+003,9.163460e+001
2.196560e+003,9.171490e+001
2.198488e+003,9.180817e+001
2.200417e+003,9.185773e+001
2.202345e+003,9.195330e+001
2.204274e+003,9.202451e+001
2.206202e+003,9.211701e+001
2.208131e+003,9.219151e+001
2.210059e+003,9.228990e+001
2.211988e+003,9.232636e+001
2.213916e+003,9.241637e+001
2.215845e+003,9.251292e+001
2.217773e+003,9.259222e+001
2.219702e+003,9.266829e+001
2.221630e+003,9.277731e+001
2.223559e+003,9.282954e+001
2.225487e+003,9.294080e+001
2.227416e+003,9.301335e+001
2.229344e+003,9.308987e+001
2.231273e+003,9.315740e+001
2.233201e+003,9.327706e+001
2.235130e+003,9.334574e+001
2.237058e+003,9.343117e+001
2.238987e+003,9.350794e+001
2.240915e+003,9.362995e+001
2.242844e+003,9.366620e+001
2.244772e+003,9.373260e+001
2.246701e+003,9.376720e+001
2.248629e+003,9.385858e+001
2.250558e+003,9.396989e+001
2.252486e+003,9.406748e+001
2.254415e+003,9.412507e+001
2.256343e+003,9.420470e+001
2.258272e+003,9.423307e+001
2.260200e+003,9.428718e+001
2.262129e+003,9.433803e+001
2.264057e+003,9.443666e+001
2.265986e+003,9.451776e+001
2.267914e+003,9.459555e+001
2.269843e+003,9.467154e+001
2.271771e+003,9.478629e+001
2.273700e+003,9.483531e+001
2.275628e+003,9.491739e+001
2.277557e+003,9.501900e+001
2.279485e+003,9.518378e+001
2.281414e+003,9.530520e+001
2.283342e+003,9.541655e+001
2.285271e+003,9.538439e+001
2.287199e+003,9.534558e+001
2.289128e+003,9.527225e+001
2.291056e+003,9.519676e+001
2.292985e+003,9.508514e+001
2.294913e+003,9.496207e+001
2.296842e+003,9.480966e+001
2.298770e+003,9.473060e+001
2.300699e+003,9.462340e+001
2.302627e+003,9.458717e+001
2.304556e+003,9.435118e+001
2.306484e+003,9.396658e+001
2.308413e+003,9.356115e+001
2.310341e+003,9.332304e+001
2.312270e+003,9.316654e+001
2.314198e+003,9.307107e+001
2.316127e+003,9.278342e+001
2.318055e+003,9.228575e+001
2.319984e+003,9.165083e+001
2.321912e+003,9.116013e+001
2.323841e+003,9.062790e+001
2.325769e+003,9.029142e+001
2.327698e+003,8.998879e+001
2.329626e+003,8.969745e+001
2.331555e+003,8.941191e+001
2.333483e+003,8.949109e+001
2.335412e+003,8.939642e+001
2.337340e+003,8.930552e+001
2.339269e+003,8.915249e+001
2.341197e+003,8.887034e+001
2.343126e+003,8.898586e+001
2.345054e+003,9.004160e+001
2.346983e+003,9.162215e+001
2.348911e+003,9.204272e+001
2.350840e+003,9.088071e+001
2.352768e+003,8.939917e+001
2.354697e+003,8.797217e+001
2.356625e+003,8.702023e+001
2.358554e+003,8.629144e+001
2.360482e+003,8.603374e+001
2.362411e+003,8.671692e+001
2.364339e+003,8.772500e+001
2.366268e+003,8.841537e+001
2.368196e+003,8.973826e+001
2.370125e+003,9.100104e+001
2.372053e+003,9.227104e+001
2.373982e+003,9.352232e+001
2.375910e+003,9.470073e+001
2.377839e+003,9.571458e+001
2.379767e+003,9.668974e+001
2.381696e+003,9.751346e+001
2.383624e+003,9.820698e+001
2.385553e+003,9.866846e+001
2.387481e+003,9.898534e+001
2.389410e+003,9.912870e+001
2.391338e+003,9.922230e+001
2.393267e+003,9.926033e+001
2.395195e+003,9.932210e+001
2.397124e+003,9.933789e+001
2.399052e+003,9.936358e+001
2.400981e+003,9.940368e+001
2.402909e+003,9.948055e+001
2.404838e+003,9.950446e+001
2.406766e+003,9.955475e+001
2.408695e+003,9.956630e+001
2.410623e+003,9.956458e+001
2.412552e+003,9.954109e+001
2.414480e+003,9.961557e+001
2.416409e+003,9.964570e+001
2.418337e+003,9.963839e+001
2.420266e+003,9.964315e+001
2.422194e+003,9.972771e+001
2.424123e+003,9.977565e+001
2.426051e+003,9.980075e+001
2.427980e+003,9.980529e+001
2.429908e+003,9.981468e+001
2.431837e+003,9.980915e+001
2.433765e+003,9.985437e+001
2.435694e+003,9.987327e+001
2.437622e+003,9.991471e+001
2.439551e+003,9.992010e+001
2.441479e+003,9.992535e+001
2.443408e+003,9.991664e+001
2.445336e+003,9.994348e+001
2.447265e+003,9.995924e+001
2.449193e+003,9.998881e+001
2.451122e+003,9.997340e+001
2.453050e+003,9.999965e+001
2.454979e+003,9.997189e+001
2.456907e+003,9.997203e+001
2.458836e+003,9.998302e+001
2.460764e+003,1.000000e+002
2.462693e+003,9.996626e+001
2.464621e+003,9.997189e+001
2.466550e+003,9.991650e+001
2.468478e+003,9.989439e+001
2.470406e+003,9.991586e+001
2.472335e+003,9.998434e+001
2.474264e+003,9.997913e+001
2.476192e+003,9.999972e+001
2.478121e+003,9.995068e+001
2.480049e+003,9.991390e+001
2.481978e+003,9.989627e+001
2.483906e+003,9.992957e+001
2.485834e+003,9.995719e+001
2.487763e+003,9.993990e+001
2.489692e+003,9.985378e+001
2.491620e+003,9.983869e+001
2.493549e+003,9.982642e+001
2.495477e+003,9.986097e+001
2.497406e+003,9.983628e+001
2.499334e+003,9.982605e+001
2.501262e+003,9.978397e+001
2.503191e+003,9.974952e+001
2.505120e+003,9.966901e+001
2.507048e+003,9.965755e+001
2.508977e+003,9.965400e+001
2.510905e+003,9.966267e+001
2.512833e+003,9.965617e+001
2.514762e+003,9.964415e+001
2.516690e+003,9.955494e+001
2.518619e+003,9.952441e+001
2.520548e+003,9.949771e+001
2.522476e+003,9.947528e+001
2.524405e+003,9.942237e+001
2.526333e+003,9.941644e+001
2.528261e+003,9.940968e+001
2.530190e+003,9.938232e+001
2.532119e+003,9.931689e+001
2.534047e+003,9.933350e+001
2.535976e+003,9.926121e+001
2.537904e+003,9.922320e+001
2.539833e+003,9.917856e+001
2.541761e+003,9.913859e+001
2.543689e+003,9.905940e+001
2.545618e+003,9.901347e+001
2.547547e+003,9.897575e+001
2.549475e+003,9.894210e+001
2.551404e+003,9.884335e+001
2.553332e+003,9.879920e+001
2.555260e+003,9.876472e+001
2.557189e+003,9.873487e+001
2.559117e+003,9.868375e+001
2.561046e+003,9.865226e+001
2.562975e+003,9.859205e+001
2.564903e+003,9.851308e+001
2.566832e+003,9.840191e+001
2.568760e+003,9.834476e+001
2.570688e+003,9.830399e+001
2.572617e+003,9.828085e+001
2.574545e+003,9.818326e+001
2.576474e+003,9.813467e+001
2.578403e+003,9.803853e+001
2.580331e+003,9.794231e+001
2.582260e+003,9.786952e+001
2.584188e+003,9.783400e+001
2.586116e+003,9.775390e+001
2.588045e+003,9.767620e+001
2.589973e+003,9.761263e+001
2.591902e+003,9.755347e+001
2.593831e+003,9.745688e+001
2.595759e+003,9.740329e+001
2.597688e+003,9.729350e+001
2.599616e+003,9.717346e+001
2.601544e+003,9.707618e+001
2.603473e+003,9.700153e+001
2.605401e+003,9.693607e+001
2.607330e+003,9.688309e+001
2.609259e+003,9.675784e+001
2.611187e+003,9.667332e+001
2.613115e+003,9.661987e+001
2.615044e+003,9.652821e+001
2.616972e+003,9.639297e+001
2.618901e+003,9.628945e+001
2.620830e+003,9.614090e+001
2.622758e+003,9.603098e+001
2.624687e+003,9.594036e+001
2.626615e+003,9.589158e+001
2.628543e+003,9.574110e+001
2.630472e+003,9.564370e+001
2.632400e+003,9.554015e+001
2.634329e+003,9.544855e+001
2.636258e+003,9.531726e+001
2.638186e+003,9.523365e+001
2.640115e+003,9.515278e+001
2.642043e+003,9.508395e+001
2.643971e+003,9.495867e+001
2.645900e+003,9.484974e+001
2.647828e+003,9.471667e+001
2.649757e+003,9.461943e+001
2.651686e+003,9.448174e+001
2.653614e+003,9.434444e+001
2.655542e+003,9.426268e+001
2.657471e+003,9.421398e+001
2.659399e+003,9.409931e+001
2.661328e+003,9.395609e+001
2.663256e+003,9.382693e+001
2.665185e+003,9.372922e+001
2.667114e+003,9.358131e+001
2.669042e+003,9.350149e+001
2.670970e+003,9.335435e+001
2.672899e+003,9.318036e+001
2.674827e+003,9.302468e+001
2.676756e+003,9.287754e+001
2.678684e+003,9.271180e+001
2.680613e+003,9.264320e+001
2.682542e+003,9.255206e+001
2.684470e+003,9.245090e+001
2.686398e+003,9.231242e+001
2.688327e+003,9.218987e+001
2.690255e+003,9.201548e+001
2.692184e+003,9.190251e+001
2.694112e+003,9.177854e+001
2.696041e+003,9.165474e+001
2.697969e+003,9.149316e+001
2.699898e+003,9.137286e+001
2.701826e+003,9.121889e+001
2.703755e+003,9.108054e+001
2.705683e+003,9.093927e+001
2.707612e+003,9.080457e+001
2.709540e+003,9.063039e+001
2.711469e+003,9.050413e+001
2.713397e+003,9.030165e+001
2.715326e+003,9.013789e+001
2.717254e+003,9.000157e+001
2.719183e+003,8.986519e+001
2.721111e+003,8.964846e+001
2.723040e+003,8.947257e+001
2.724969e+003,8.935041e+001
2.726897e+003,8.923408e+001
2.728825e+003,8.904642e+001
2.730754e+003,8.888638e+001
2.732682e+003,8.870034e+001
2.734611e+003,8.854280e+001
2.736539e+003,8.838656e+001
2.738468e+003,8.823534e+001
2.740396e+003,8.805346e+001
2.742325e+003,8.788889e+001
2.744253e+003,8.768052e+001
2.746182e+003,8.748649e+001
2.748110e+003,8.726951e+001
2.750039e+003,8.710887e+001
2.751967e+003,8.698083e+001
2.753896e+003,8.680435e+001
2.755824e+003,8.656461e+001
2.757753e+003,8.645747e+001
2.759681e+003,8.630331e+001
2.761610e+003,8.606198e+001
2.763538e+003,8.581342e+001
2.765467e+003,8.564740e+001
2.767395e+003,8.547180e+001
2.769324e+003,8.530855e+001
2.771252e+003,8.509096e+001
2.773181e+003,8.487453e+001
2.775109e+003,8.467252e+001
2.777038e+003,8.452552e+001
2.778966e+003,8.433739e+001
2.780895e+003,8.414474e+001
2.782823e+003,8.389187e+001
2.784752e+003,8.364890e+001
2.786680e+003,8.342044e+001
2.788609e+003,8.318430e+001
2.790537e+003,8.299836e+001
2.792466e+003,8.283395e+001
2.794394e+003,8.258481e+001
2.796323e+003,8.234301e+001
2.798251e+003,8.208247e+001
2.800180e+003,8.194719e+001
2.802108e+003,8.176064e+001
2.804037e+003,8.154108e+001
2.805965e+003,8.128796e+001
2.807894e+003,8.101073e+001
2.809822e+003,8.076006e+001
2.811751e+003,8.060603e+001
2.813679e+003,8.041875e+001
2.815608e+003,8.018348e+001
2.817536e+003,7.989122e+001
2.819465e+003,7.961073e+001
2.821393e+003,7.935638e+001
2.823322e+003,7.911297e+001
2.825250e+003,7.885998e+001
2.827179e+003,7.863953e+001
2.829107e+003,7.840489e+001
2.831036e+003,7.814648e+001
2.832964e+003,7.783669e+001
2.834893e+003,7.754434e+001
2.836821e+003,7.719387e+001
2.838750e+003,7.695480e+001
2.840678e+003,7.675145e+001
2.842607e+003,7.649863e+001
2.844535e+003,7.618353e+001
2.846464e+003,7.587753e+001
2.848392e+003,7.557033e+001
2.850321e+003,7.525980e+001
2.852249e+003,7.495796e+001
2.854178e+003,7.468115e+001
2.856106e+003,7.440209e+001
2.858035e+003,7.412506e+001
2.859963e+003,7.384331e+001
2.861892e+003,7.363077e+001
2.863820e+003,7.335439e+001
2.865749e+003,7.301604e+001
2.867677e+003,7.269928e+001
2.869606e+003,7.239848e+001
2.871534e+003,7.205330e+001
2.873463e+003,7.172455e+001
2.875391e+003,7.142235e+001
2.877320e+003,7.119892e+001
2.879248e+003,7.088824e+001
2.881177e+003,7.055492e+001
2.883105e+003,7.021834e+001
2.885034e+003,6.990158e+001
2.886962e+003,6.960934e+001
2.888891e+003,6.931441e+001
2.890819e+003,6.898865e+001
2.892748e+003,6.862497e+001
2.894676e+003,6.822537e+001
2.896605e+003,6.788667e+001
2.898533e+003,6.754911e+001
2.900462e+003,6.723207e+001
2.902390e+003,6.688834e+001
2.904319e+003,6.650769e+001
2.906247e+003,6.612790e+001
2.908176e+003,6.579103e+001
2.910104e+003,6.544743e+001
2.912033e+003,6.503482e+001
2.913961e+003,6.459323e+001
2.915890e+003,6.420484e+001
2.917818e+003,6.385946e+001
2.919747e+003,6.357362e+001
2.921675e+003,6.326405e+001
2.923604e+003,6.291876e+001
2.925532e+003,6.254357e+001
2.927461e+003,6.215318e+001
2.929389e+003,6.175913e+001
2.931318e+003,6.145404e+001
2.933246e+003,6.107043e+001
2.935175e+003,6.067246e+001
2.937103e+003,6.031345e+001
2.939032e+003,5.993614e+001
2.940960e+003,5.956284e+001
2.942889e+003,5.916549e+001
2.944817e+003,5.872736e+001
2.946746e+003,5.834154e+001
2.948674e+003,5.794466e+001
2.950603e+003,5.752127e+001
2.952531e+003,5.711521e+001
2.954460e+003,5.680107e+001
2.956388e+003,5.645171e+001
2.958317e+003,5.607900e+001
2.960245e+003,5.564627e+001
2.962174e+003,5.522295e+001
2.964102e+003,5.479248e+001
2.966031e+003,5.441416e+001
2.967959e+003,5.402048e+001
2.969888e+003,5.361288e+001
2.971816e+003,5.317050e+001
2.973745e+003,5.269606e+001
2.975673e+003,5.220080e+001
2.977602e+003,5.177143e+001
2.979530e+003,5.133015e+001
2.981459e+003,5.094274e+001
2.983387e+003,5.054461e+001
2.985316e+003,5.011020e+001
2.987244e+003,4.970076e+001
2.989173e+003,4.928952e+001
2.991101e+003,4.885301e+001
2.993030e+003,4.840405e+001
2.994958e+003,4.790334e+001
2.996887e+003,4.748558e+001
2.998815e+003,4.708643e+001
3.000744e+003,4.667747e+001
3.002672e+003,4.626674e+001
3.004601e+003,4.580614e+001
3.006529e+003,4.532379e+001
3.008458e+003,4.488581e+001
3.010386e+003,4.446385e+001
3.012315e+003,4.401340e+001
3.014243e+003,4.356826e+001
3.016172e+003,4.320450e+001
3.018100e+003,4.276915e+001
3.020029e+003,4.229732e+001
3.021957e+003,4.179999e+001
3.023886e+003,4.133096e+001
3.025814e+003,4.092640e+001
3.027743e+003,4.050901e+001
3.029671e+003,4.003799e+001
3.031600e+003,3.956344e+001
3.033528e+003,3.909251e+001
3.035457e+003,3.870131e+001
3.037385e+003,3.830793e+001
3.039314e+003,3.787439e+001
3.041242e+003,3.744720e+001
3.043171e+003,3.704094e+001
3.045099e+003,3.658634e+001
3.047028e+003,3.612800e+001
3.048956e+003,3.565886e+001
3.050885e+003,3.522762e+001
3.052813e+003,3.482050e+001
3.054742e+003,3.442042e+001
3.056670e+003,3.398318e+001
3.058599e+003,3.357929e+001
3.060527e+003,3.314587e+001
3.062456e+003,3.274653e+001
3.064384e+003,3.233759e+001
3.066313e+003,3.191084e+001
3.068241e+003,3.147246e+001
3.070170e+003,3.111558e+001
3.072098e+003,3.077477e+001
3.074027e+003,3.042034e+001
3.075955e+003,3.002407e+001
3.077884e+003,2.958095e+001
3.079812e+003,2.916718e+001
3.081741e+003,2.873190e+001
3.083669e+003,2.831122e+001
3.085598e+003,2.798486e+001
3.087526e+003,2.764578e+001
3.089455e+003,2.724885e+001
3.091383e+003,2.687582e+001
3.093312e+003,2.659568e+001
3.095240e+003,2.625622e+001
3.097169e+003,2.591464e+001
3.099097e+003,2.556647e+001
3.101026e+003,2.522674e+001
3.102954e+003,2.485994e+001
3.104883e+003,2.451533e+001
3.106811e+003,2.422586e+001
3.108740e+003,2.393861e+001
3.110668e+003,2.355488e+001
3.112597e+003,2.325694e+001
3.114525e+003,2.294626e+001
3.116454e+003,2.261287e+001
3.118382e+003,2.235604e+001
3.120311e+003,2.209502e+001
3.122239e+003,2.179442e+001
3.124167e+003,2.154940e+001
3.126096e+003,2.124851e+001
3.128025e+003,2.094070e+001
3.129953e+003,2.070986e+001
3.131882e+003,2.051553e+001
3.133810e+003,2.027455e+001
3.135739e+003,2.001241e+001
3.137667e+003,1.974196e+001
3.139595e+003,1.948817e+001
3.141524e+003,1.926172e+001
3.143453e+003,1.904917e+001
3.145381e+003,1.878844e+001
3.147310e+003,1.845517e+001
3.149238e+003,1.821136e+001
3.151167e+003,1.806374e+001
3.153095e+003,1.787203e+001
3.155023e+003,1.767779e+001
3.156952e+003,1.751771e+001
3.158881e+003,1.732051e+001
3.160809e+003,1.711833e+001
3.162738e+003,1.697180e+001
3.164666e+003,1.681175e+001
3.166594e+003,1.663873e+001
3.168523e+003,1.642394e+001
3.170452e+003,1.621501e+001
3.172380e+003,1.605169e+001
3.174309e+003,1.597133e+001
3.176237e+003,1.579647e+001
3.178166e+003,1.558089e+001
3.180094e+003,1.545117e+001
3.182022e+003,1.529568e+001
3.183951e+003,1.513840e+001
3.185880e+003,1.498866e+001
3.187808e+003,1.481663e+001
3.189737e+003,1.467505e+001
3.191665e+003,1.459286e+001
3.193594e+003,1.451561e+001
3.195522e+003,1.445577e+001
3.197450e+003,1.438471e+001
3.199379e+003,1.422896e+001
3.201308e+003,1.404284e+001
3.203236e+003,1.393873e+001
3.205165e+003,1.380308e+001
3.207093e+003,1.365535e+001
3.209021e+003,1.364647e+001
3.210950e+003,1.354571e+001
3.212878e+003,1.337370e+001
3.214807e+003,1.329247e+001
3.216736e+003,1.322027e+001
3.218664e+003,1.311423e+001
3.220593e+003,1.304960e+001
3.222521e+003,1.294598e+001
3.224449e+003,1.285324e+001
3.226378e+003,1.280498e+001
3.228306e+003,1.277734e+001
3.230235e+003,1.272598e+001
3.232164e+003,1.264745e+001
3.234092e+003,1.257471e+001
3.236021e+003,1.248068e+001
3.237949e+003,1.240922e+001
3.239877e+003,1.233189e+001
3.241806e+003,1.231626e+001
3.243734e+003,1.230528e+001
3.245663e+003,1.223592e+001
3.247592e+003,1.209025e+001
3.249520e+003,1.201460e+001
3.251448e+003,1.197776e+001
3.253377e+003,1.195525e+001
3.255305e+003,1.194599e+001
3.257234e+003,1.188274e+001
3.259162e+003,1.187826e+001
3.261091e+003,1.184909e+001
3.263020e+003,1.180542e+001
3.264948e+003,1.177450e+001
3.266876e+003,1.169785e+001
3.268805e+003,1.159457e+001
3.270733e+003,1.159307e+001
3.272662e+003,1.156137e+001
3.274591e+003,1.153283e+001
3.276519e+003,1.153518e+001
3.278448e+003,1.145910e+001
3.280376e+003,1.140564e+001
3.282304e+003,1.133240e+001
3.284233e+003,1.130692e+001
3.286161e+003,1.133943e+001
3.288090e+003,1.132945e+001
3.290019e+003,1.122546e+001
3.291947e+003,1.118787e+001
3.293875e+003,1.120202e+001
3.295804e+003,1.119737e+001
3.297732e+003,1.110606e+001
3.299661e+003,1.105473e+001
3.301589e+003,1.103968e+001
3.303518e+003,1.095977e+001
3.305447e+003,1.092373e+001
3.307375e+003,1.097474e+001
3.309303e+003,1.102782e+001
3.311232e+003,1.106021e+001
3.313160e+003,1.097744e+001
3.315089e+003,1.089403e+001
3.317017e+003,1.092198e+001
3.318946e+003,1.087337e+001
3.320875e+003,1.078386e+001
3.322803e+003,1.076557e+001
3.324731e+003,1.080141e+001
3.326660e+003,1.079252e+001
3.328588e+003,1.067942e+001
3.330517e+003,1.067963e+001
3.332445e+003,1.068557e+001
3.334374e+003,1.063010e+001
3.336302e+003,1.063433e+001
3.338231e+003,1.072616e+001
3.340159e+003,1.068278e+001
3.342088e+003,1.057502e+001
3.344016e+003,1.056377e+001
3.345945e+003,1.058302e+001
3.347873e+003,1.058272e+001
3.349802e+003,1.056149e+001
3.351730e+003,1.050972e+001
3.353659e+003,1.047772e+001
3.355587e+003,1.049568e+001
3.357516e+003,1.049354e+001
3.359444e+003,1.048625e+001
3.361373e+003,1.052775e+001
3.363302e+003,1.061057e+001
3.365230e+003,1.056064e+001
3.367158e+003,1.041270e+001
3.369087e+003,1.033977e+001
3.371015e+003,1.033671e+001
3.372944e+003,1.038886e+001
3.374872e+003,1.041675e+001
3.376801e+003,1.044785e+001
3.378729e+003,1.043368e+001
3.380658e+003,1.043017e+001
3.382586e+003,1.036073e+001
3.384515e+003,1.031579e+001
3.386443e+003,1.030482e+001
3.388372e+003,1.038910e+001
3.390300e+003,1.040810e+001
3.392229e+003,1.040632e+001
3.394157e+003,1.044947e+001
3.396086e+003,1.043744e+001
3.398014e+003,1.041133e+001
3.399943e+003,1.034888e+001
3.401871e+003,1.031468e+001
3.403800e+003,1.034920e+001
3.405728e+003,1.033062e+001
3.407657e+003,1.032515e+001
3.409585e+003,1.033830e+001
3.411514e+003,1.038208e+001
3.413442e+003,1.036333e+001
3.415371e+003,1.041675e+001
3.417299e+003,1.041933e+001
3.419228e+003,1.038735e+001
3.421156e+003,1.038186e+001
3.423085e+003,1.037953e+001
3.425013e+003,1.037116e+001
3.426942e+003,1.038396e+001
3.428870e+003,1.033711e+001
3.430799e+003,1.034284e+001
3.432727e+003,1.042023e+001
3.434656e+003,1.045431e+001
3.436584e+003,1.035842e+001
3.438513e+003,1.039678e+001
3.440441e+003,1.050467e+001
3.442370e+003,1.053341e+001
3.444298e+003,1.049489e+001
3.446227e+003,1.052757e+001
3.448155e+003,1.055231e+001
3.450084e+003,1.051096e+001
3.452012e+003,1.047181e+001
3.453941e+003,1.047205e+001
3.455869e+003,1.046579e+001
3.457798e+003,1.048753e+001
3.459726e+003,1.054411e+001
3.461655e+003,1.053829e+001
3.463583e+003,1.054314e+001
3.465512e+003,1.060788e+001
3.467440e+003,1.066722e+001
3.469369e+003,1.066377e+001
3.471297e+003,1.061186e+001
3.473226e+003,1.062305e+001
3.475154e+003,1.067291e+001
3.477083e+003,1.063424e+001
3.479011e+003,1.063033e+001
3.480940e+003,1.071053e+001
3.482868e+003,1.070495e+001
3.484797e+003,1.072372e+001
3.486725e+003,1.070338e+001
3.488654e+003,1.068829e+001
3.490582e+003,1.070005e+001
3.492511e+003,1.078010e+001
3.494439e+003,1.074457e+001
3.496368e+003,1.061685e+001
3.498296e+003,1.065316e+001
3.500225e+003,1.075209e+001
3.502153e+003,1.080018e+001
3.504082e+003,1.080489e+001
3.506010e+003,1.081293e+001
3.507939e+003,1.089886e+001
3.509867e+003,1.082168e+001
3.511796e+003,1.077705e+001
3.513724e+003,1.082955e+001
3.515653e+003,1.082017e+001
3.517581e+003,1.082495e+001
3.519510e+003,1.090755e+001
3.521438e+003,1.097588e+001
3.523367e+003,1.100083e+001
3.525295e+003,1.092708e+001
3.527224e+003,1.101490e+001
3.529152e+003,1.107062e+001
3.531081e+003,1.101866e+001
3.533009e+003,1.096236e+001
3.534938e+003,1.101472e+001
3.536866e+003,1.111593e+001
3.538795e+003,1.110962e+001
3.540723e+003,1.089510e+001
3.542652e+003,1.095267e+001
3.544580e+003,1.114894e+001
3.546509e+003,1.120736e+001
3.548437e+003,1.129946e+001
3.550366e+003,1.132549e+001
3.552294e+003,1.124668e+001
3.554223e+003,1.128822e+001
3.556151e+003,1.137277e+001
3.558080e+003,1.147016e+001
3.560008e+003,1.147574e+001
3.561937e+003,1.146691e+001
3.563865e+003,1.143149e+001
3.565794e+003,1.150950e+001
3.567722e+003,1.150715e+001
3.569651e+003,1.148068e+001
3.571579e+003,1.154012e+001
3.573508e+003,1.155355e+001
3.575436e+003,1.159352e+001
3.577365e+003,1.164905e+001
3.579293e+003,1.170963e+001
3.581222e+003,1.178340e+001
3.583150e+003,1.183991e+001
3.585079e+003,1.185785e+001
3.587007e+003,1.191582e+001
3.588936e+003,1.204117e+001
3.590864e+003,1.210535e+001
3.592793e+003,1.211425e+001
3.594721e+003,1.218259e+001
3.596650e+003,1.232614e+001
3.598578e+003,1.246354e+001
3.600507e+003,1.248742e+001
3.602435e+003,1.245714e+001
3.604364e+003,1.255296e+001
3.606292e+003,1.262711e+001
3.608221e+003,1.269758e+001
3.610149e+003,1.283879e+001
3.612078e+003,1.288056e+001
3.614006e+003,1.292057e+001
3.615935e+003,1.304565e+001
3.617863e+003,1.320132e+001
3.619792e+003,1.332235e+001
3.621720e+003,1.336351e+001
3.623649e+003,1.345729e+001
3.625577e+003,1.363780e+001
3.627506e+003,1.375828e+001
3.629434e+003,1.395022e+001
3.631363e+003,1.417232e+001
3.633291e+003,1.433751e+001
3.635220e+003,1.436387e+001
3.637148e+003,1.439765e+001
3.639077e+003,1.461693e+001
3.641005e+003,1.485751e+001
3.642934e+003,1.500578e+001
3.644862e+003,1.520313e+001
3.646791e+003,1.553813e+001
3.648719e+003,1.557082e+001
3.650648e+003,1.564125e+001
3.652576e+003,1.603905e+001
3.654505e+003,1.625834e+001
3.656433e+003,1.644376e+001
3.658362e+003,1.661865e+001
3.660290e+003,1.678883e+001
3.662219e+003,1.693281e+001
3.664147e+003,1.716539e+001
3.666076e+003,1.739865e+001
3.668004e+003,1.767880e+001
3.669933e+003,1.795827e+001
3.671861e+003,1.807993e+001
3.673790e+003,1.819790e+001
3.675718e+003,1.847374e+001
3.677647e+003,1.884502e+001
3.679575e+003,1.916478e+001
3.681504e+003,1.928608e+001
3.683432e+003,1.941518e+001
3.685361e+003,1.957499e+001
3.687289e+003,1.969582e+001
3.689218e+003,2.004968e+001
3.691146e+003,2.038362e+001
3.693075e+003,2.048752e+001
3.695003e+003,2.065543e+001
3.696932e+003,2.090971e+001
3.698860e+003,2.111706e+001
3.700789e+003,2.122821e+001
3.702717e+003,2.152645e+001
3.704646e+003,2.175187e+001
3.706574e+003,2.191634e+001
3.708503e+003,2.193965e+001
3.710431e+003,2.201144e+001
3.712360e+003,2.233659e+001
3.714288e+003,2.258500e+001
3.716217e+003,2.271483e+001
3.718145e+003,2.293546e+001
3.720074e+003,2.313039e+001
3.722002e+003,2.326839e+001
3.723931e+003,2.333858e+001
3.725859e+003,2.354964e+001
3.727788e+003,2.375342e+001
3.729716e+003,2.383536e+001
3.731645e+003,2.388091e+001
3.733573e+003,2.428405e+001
3.735502e+003,2.467356e+001
3.737430e+003,2.446558e+001
3.739359e+003,2.457180e+001
3.741287e+003,2.499417e+001
3.743216e+003,2.512535e+001
3.745144e+003,2.526523e+001
3.747073e+003,2.558271e+001
3.749001e+003,2.572743e+001
3.750930e+003,2.581837e+001
3.752858e+003,2.600967e+001
3.754787e+003,2.607013e+001
3.756715e+003,2.622816e+001
3.758644e+003,2.631627e+001
3.760572e+003,2.643116e+001
3.762500e+003,2.660538e+001
3.764429e+003,2.685562e+001
3.766358e+003,2.697306e+001
3.768286e+003,2.704148e+001
3.770215e+003,2.728573e+001
3.772143e+003,2.745161e+001
3.774072e+003,2.746945e+001
3.776000e+003,2.758500e+001
3.777928e+003,2.762890e+001
3.779857e+003,2.775647e+001
3.781786e+003,2.796245e+001
3.783714e+003,2.801643e+001
3.785643e+003,2.809500e+001
3.787571e+003,2.828305e+001
3.789500e+003,2.846163e+001
3.791428e+003,2.861516e+001
3.793356e+003,2.878936e+001
3.795285e+003,2.894140e+001
3.797214e+003,2.911739e+001
3.799142e+003,2.924152e+001
3.801071e+003,2.939618e+001
3.802999e+003,2.960075e+001
3.804927e+003,2.960676e+001
3.806856e+003,2.960950e+001
3.808785e+003,2.968991e+001
3.810713e+003,2.987281e+001
3.812642e+003,2.999057e+001
3.814570e+003,3.026489e+001
3.816499e+003,3.044375e+001
3.818427e+003,3.035444e+001
3.820355e+003,3.040225e+001
3.822284e+003,3.077953e+001
3.824213e+003,3.099849e+001
3.826141e+003,3.121361e+001
3.828070e+003,3.121206e+001
3.829998e+003,3.121053e+001
3.831927e+003,3.127003e+001
3.833855e+003,3.142467e+001
3.835783e+003,3.171730e+001
3.837712e+003,3.207461e+001
3.839641e+003,3.195846e+001
3.841569e+003,3.203833e+001
3.843498e+003,3.208376e+001
3.845426e+003,3.224186e+001
3.847354e+003,3.233141e+001
3.849283e+003,3.246482e+001
3.851211e+003,3.274340e+001
3.853140e+003,3.296999e+001
3.855069e+003,3.276296e+001
3.856997e+003,3.286189e+001
3.858926e+003,3.303494e+001
3.860854e+003,3.326659e+001
3.862782e+003,3.347710e+001
3.864711e+003,3.362751e+001
3.866639e+003,3.366511e+001
3.868568e+003,3.373002e+001
3.870497e+003,3.372108e+001
3.872425e+003,3.384143e+001
3.874354e+003,3.397560e+001
3.876282e+003,3.408250e+001
3.878210e+003,3.409299e+001
3.880139e+003,3.414980e+001
3.882067e+003,3.422890e+001
3.883996e+003,3.436407e+001
3.885925e+003,3.451942e+001
3.887853e+003,3.474954e+001
3.889781e+003,3.487283e+001
3.891710e+003,3.494527e+001
3.893638e+003,3.504062e+001
3.895567e+003,3.511758e+001
3.897495e+003,3.508361e+001
3.899424e+003,3.530348e+001
3.901353e+003,3.544897e+001
3.903281e+003,3.559232e+001
3.905209e+003,3.574755e+001
3.907138e+003,3.580593e+001
3.909066e+003,3.591417e+001
3.910995e+003,3.607446e+001
3.912924e+003,3.615990e+001
3.914852e+003,3.624796e+001
3.916781e+003,3.632937e+001
3.918709e+003,3.646314e+001
3.920637e+003,3.653468e+001
3.922566e+003,3.659916e+001
3.924494e+003,3.667542e+001
3.926423e+003,3.683948e+001
3.928352e+003,3.692867e+001
3.930280e+003,3.697234e+001
3.932208e+003,3.716329e+001
3.934137e+003,3.721110e+001
3.936065e+003,3.717604e+001
3.937994e+003,3.735964e+001
3.939922e+003,3.761031e+001
3.941851e+003,3.769301e+001
3.943780e+003,3.767889e+001
3.945708e+003,3.770696e+001
3.947636e+003,3.783846e+001
3.949565e+003,3.789742e+001
3.951493e+003,3.793350e+001
3.953422e+003,3.812112e+001
3.955350e+003,3.829378e+001
3.957279e+003,3.845178e+001
3.959208e+003,3.850146e+001
3.961136e+003,3.862990e+001
3.963064e+003,3.875830e+001
3.964993e+003,3.876080e+001
3.966921e+003,3.887556e+001
3.968850e+003,3.901567e+001
3.970778e+003,3.907214e+001
3.972707e+003,3.915202e+001
3.974635e+003,3.921120e+001
3.976564e+003,3.934146e+001
3.978492e+003,3.943465e+001
3.980421e+003,3.954973e+001
3.982349e+003,3.965276e+001
3.984278e+003,3.981903e+001
3.986206e+003,3.981931e+001
3.988135e+003,3.981313e+001
3.990063e+003,4.003948e+001
3.991992e+003,4.021799e+001
3.993920e+003,4.019194e+001
3.995849e+003,4.021942e+001
3.997777e+003,4.027268e+001
3.999706e+003,4.038007e+001
