3.991992e+002,5.146592e+001
4.011277e+002,5.065397e+001
4.030562e+002,5.124229e+001
4.049847e+002,5.189840e+001
4.069132e+002,5.364474e+001
4.088417e+002,5.534710e+001
4.107702e+002,5.546009e+001
4.126987e+002,5.332235e+001
4.146272e+002,5.134499e+001
4.165557e+002,4.953732e+001
4.184842e+002,4.589767e+001
4.204127e+002,4.273888e+001
4.223412e+002,4.055916e+001
4.242697e+002,3.741454e+001
4.261982e+002,3.561907e+001
4.281267e+002,3.451573e+001
4.300552e+002,3.407496e+001
4.319837e+002,3.280754e+001
4.339122e+002,3.148852e+001
4.358407e+002,2.999117e+001
4.377692e+002,2.819703e+001
4.396977e+002,2.557203e+001
4.416262e+002,2.295120e+001
4.435547e+002,2.044878e+001
4.454832e+002,1.866153e+001
4.474117e+002,1.622528e+001
4.493401e+002,1.455034e+001
4.512686e+002,1.367098e+001
4.531971e+002,1.327632e+001
4.551256e+002,1.262545e+001
4.570541e+002,1.190851e+001
4.589826e+002,1.124360e+001
4.609111e+002,1.091825e+001
4.628396e+002,1.061491e+001
4.647681e+002,1.081579e+001
4.666966e+002,1.079198e+001
4.686251e+002,1.004575e+001
4.705536e+002,1.000000e+001
4.724821e+002,1.000000e+001
4.744106e+002,1.000000e+001
4.763391e+002,1.012143e+001
4.782676e+002,1.022723e+001
4.801961e+002,1.003073e+001
4.821246e+002,1.001130e+001
4.840531e+002,1.052009e+001
4.859816e+002,1.108276e+001
4.879101e+002,1.154808e+001
4.898386e+002,1.189630e+001
4.917671e+002,1.350135e+001
4.936956e+002,1.531811e+001
4.956241e+002,1.684776e+001
4.975526e+002,1.866364e+001
4.994811e+002,2.045932e+001
5.014096e+002,2.155835e+001
5.033381e+002,2.190865e+001
5.052666e+002,2.169213e+001
5.071951e+002,2.051961e+001
5.091236e+002,1.839730e+001
5.110521e+002,1.630130e+001
5.129806e+002,1.486980e+001
5.149091e+002,1.397424e+001
5.168376e+002,1.348561e+001
5.187661e+002,1.363880e+001
5.206946e+002,1.370736e+001
5.226231e+002,1.376489e+001
5.245516e+002,1.386601e+001
5.264801e+002,1.447134e+001
5.284086e+002,1.523904e+001
5.303371e+002,1.600451e+001
5.322656e+002,1.692427e+001
5.341941e+002,1.825017e+001
5.361226e+002,1.954787e+001
5.380511e+002,2.116359e+001
5.399796e+002,2.299730e+001
5.419081e+002,2.537090e+001
5.438365e+002,2.790425e+001
5.457651e+002,3.060391e+001
5.476936e+002,3.299650e+001
5.496221e+002,3.548465e+001
5.515506e+002,3.826174e+001
5.534791e+002,4.138551e+001
5.554076e+002,4.455892e+001
5.573361e+002,4.770906e+001
5.592646e+002,5.056899e+001
5.611931e+002,5.350254e+001
5.631216e+002,5.671903e+001
5.650500e+002,5.985070e+001
5.669786e+002,6.210871e+001
5.689070e+002,6.402361e+001
5.708356e+002,6.531084e+001
5.727640e+002,6.581680e+001
5.746926e+002,6.562289e+001
5.766210e+002,6.531279e+001
5.785496e+002,6.573161e+001
5.804780e+002,6.753616e+001
5.824066e+002,7.031088e+001
5.843350e+002,7.371992e+001
5.862635e+002,7.722617e+001
5.881920e+002,8.005476e+001
5.901205e+002,8.198566e+001
5.920490e+002,8.393784e+001
5.939775e+002,8.589223e+001
5.959060e+002,8.747454e+001
5.978345e+002,8.836771e+001
5.997631e+002,8.887196e+001
6.016915e+002,8.930604e+001
6.036201e+002,8.936158e+001
6.055485e+002,8.849177e+001
6.074771e+002,8.739453e+001
6.094055e+002,8.734354e+001
6.113340e+002,8.857172e+001
6.132625e+002,9.034085e+001
6.151910e+002,9.208048e+001
6.171195e+002,9.395991e+001
6.190480e+002,9.605448e+001
6.209765e+002,9.743552e+001
6.229050e+002,9.808211e+001
6.248335e+002,9.891865e+001
6.267620e+002,9.975469e+001
6.286905e+002,9.970092e+001
6.306190e+002,9.900883e+001
6.325475e+002,9.869287e+001
6.344760e+002,9.860408e+001
6.364045e+002,9.827232e+001
6.383330e+002,9.799203e+001
6.402615e+002,9.815269e+001
6.421900e+002,9.853284e+001
6.441185e+002,9.855965e+001
6.460470e+002,9.785925e+001
6.479755e+002,9.671597e+001
6.499040e+002,9.559259e+001
6.518325e+002,9.421243e+001
6.537610e+002,9.231081e+001
6.556895e+002,9.038437e+001
6.576180e+002,8.832889e+001
6.595465e+002,8.567420e+001
6.614750e+002,8.233608e+001
6.634035e+002,7.894057e+001
6.653320e+002,7.587438e+001
6.672605e+002,7.133781e+001
6.691890e+002,6.357675e+001
6.711175e+002,5.925506e+001
6.730460e+002,5.378612e+001
6.749745e+002,4.787516e+001
6.769030e+002,4.225269e+001
6.788315e+002,3.743556e+001
6.807599e+002,3.329919e+001
6.826885e+002,2.995100e+001
6.846169e+002,2.668573e+001
6.865455e+002,2.382811e+001
6.884739e+002,2.105826e+001
6.904025e+002,1.874705e+001
6.923309e+002,1.659156e+001
6.942595e+002,1.508774e+001
6.961880e+002,1.395875e+001
6.981165e+002,1.335617e+001
7.000450e+002,1.282116e+001
7.019734e+002,1.262612e+001
7.039020e+002,1.267446e+001
7.058304e+002,1.282460e+001
7.077590e+002,1.285177e+001
7.096874e+002,1.322161e+001
7.116160e+002,1.340604e+001
7.135444e+002,1.353273e+001
7.154730e+002,1.364742e+001
7.174014e+002,1.374275e+001
7.193300e+002,1.372801e+001
7.212584e+002,1.399501e+001
7.231870e+002,1.442730e+001
7.251154e+002,1.515192e+001
7.270439e+002,1.599467e+001
7.289724e+002,1.723369e+001
7.309009e+002,1.874562e+001
7.328294e+002,2.044819e+001
7.347579e+002,2.207827e+001
7.366864e+002,2.396178e+001
7.386149e+002,2.600423e+001
7.405434e+002,2.797275e+001
7.424719e+002,2.984195e+001
7.444004e+002,3.180982e+001
7.463289e+002,3.363059e+001
7.482574e+002,3.548542e+001
7.501859e+002,3.735925e+001
7.521144e+002,3.937241e+001
7.540429e+002,4.141532e+001
7.559714e+002,4.349403e+001
7.578999e+002,4.550726e+001
7.598284e+002,4.744566e+001
7.617569e+002,4.944128e+001
7.636854e+002,5.142956e+001
7.656139e+002,5.330210e+001
7.675424e+002,5.497393e+001
7.694709e+002,5.672911e+001
7.713994e+002,5.862115e+001
7.733279e+002,6.034497e+001
7.752564e+002,6.183796e+001
7.771849e+002,6.337341e+001
7.791134e+002,6.531804e+001
7.810419e+002,6.756198e+001
7.829704e+002,6.972368e+001
7.848989e+002,7.194234e+001
7.868274e+002,7.442340e+001
7.887559e+002,7.673947e+001
7.906844e+002,7.874271e+001
7.926129e+002,8.070380e+001
7.945414e+002,8.262005e+001
7.964699e+002,8.449886e+001
7.983984e+002,8.604916e+001
8.003269e+002,8.740871e+001
8.022554e+002,8.891946e+001
8.041839e+002,9.063338e+001
8.061124e+002,9.196989e+001
8.080409e+002,9.315657e+001
8.099694e+002,9.435804e+001
8.118979e+002,9.567326e+001
8.138264e+002,9.669257e+001
8.157549e+002,9.749603e+001
8.176833e+002,9.831329e+001
8.196119e+002,9.916784e+001
8.215403e+002,9.955817e+001
8.234689e+002,9.965568e+001
8.253973e+002,9.977779e+001
8.273259e+002,9.997353e+001
8.292543e+002,9.989295e+001
8.311829e+002,9.972763e+001
8.331113e+002,9.970620e+001
8.350399e+002,9.995863e+001
8.369683e+002,1.000000e+002
8.388969e+002,9.986250e+001
8.408253e+002,9.965693e+001
8.427538e+002,9.958675e+001
8.446824e+002,9.934490e+001
8.466108e+002,9.878274e+001
8.485394e+002,9.812267e+001
8.504678e+002,9.761274e+001
8.523964e+002,9.677796e+001
8.543248e+002,9.573437e+001
8.562534e+002,9.462106e+001
8.581818e+002,9.358204e+001
8.601104e+002,9.235792e+001
8.620388e+002,9.070130e+001
8.639673e+002,8.880666e+001
8.658958e+002,8.702480e+001
8.678243e+002,8.491185e+001
8.697528e+002,8.249742e+001
8.716813e+002,7.987814e+001
8.736098e+002,7.733181e+001
8.755383e+002,7.458636e+001
8.774668e+002,7.155191e+001
8.793953e+002,6.832295e+001
8.813238e+002,6.509793e+001
8.832523e+002,6.172633e+001
8.851808e+002,5.825352e+001
8.871093e+002,5.476152e+001
8.890378e+002,5.130744e+001
8.909663e+002,4.788207e+001
8.928948e+002,4.458186e+001
8.948233e+002,4.147295e+001
8.967518e+002,3.853307e+001
8.986803e+002,3.570863e+001
9.006088e+002,3.300733e+001
9.025373e+002,3.051710e+001
9.044658e+002,2.825463e+001
9.063943e+002,2.624862e+001
9.083228e+002,2.443115e+001
9.102513e+002,2.285184e+001
9.121798e+002,2.148194e+001
9.141083e+002,2.031909e+001
9.160368e+002,1.927113e+001
9.179653e+002,1.829625e+001
9.198938e+002,1.740033e+001
9.218223e+002,1.659910e+001
9.237508e+002,1.581917e+001
9.256793e+002,1.515455e+001
9.276078e+002,1.451781e+001
9.295363e+002,1.394402e+001
9.314648e+002,1.340609e+001
9.333932e+002,1.290065e+001
9.353218e+002,1.238692e+001
9.372502e+002,1.198006e+001
9.391788e+002,1.159850e+001
9.411072e+002,1.133296e+001
9.430358e+002,1.108061e+001
9.449643e+002,1.088802e+001
9.468928e+002,1.069513e+001
9.488213e+002,1.052828e+001
9.507498e+002,1.041024e+001
9.526783e+002,1.035863e+001
9.546068e+002,1.025974e+001
9.565353e+002,1.019907e+001
9.584637e+002,1.015479e+001
9.603923e+002,1.021143e+001
9.623207e+002,1.029213e+001
9.642493e+002,1.027958e+001
9.661777e+002,1.020837e+001
9.681063e+002,1.024575e+001
9.700347e+002,1.020790e+001
9.719633e+002,1.018098e+001
9.738917e+002,1.016128e+001
9.758203e+002,1.016461e+001
9.777487e+002,1.018093e+001
9.796772e+002,1.017811e+001
9.816057e+002,1.015924e+001
9.835342e+002,1.019010e+001
9.854627e+002,1.016735e+001
9.873912e+002,1.012037e+001
9.893197e+002,1.010592e+001
9.912482e+002,1.012497e+001
9.931768e+002,1.010650e+001
9.951052e+002,1.016282e+001
9.970338e+002,1.013751e+001
9.989622e+002,1.010733e+001
1.000891e+003,1.011459e+001
1.002819e+003,1.010212e+001
1.004748e+003,1.006907e+001
1.006676e+003,1.008469e+001
1.008605e+003,1.009105e+001
1.010533e+003,1.008059e+001
1.012462e+003,1.011662e+001
1.014390e+003,1.016009e+001
1.016319e+003,1.014497e+001
1.018247e+003,1.008932e+001
1.020176e+003,1.003406e+001
1.022104e+003,1.009787e+001
1.024033e+003,1.017483e+001
1.025961e+003,1.020265e+001
1.027890e+003,1.011607e+001
1.029818e+003,1.009925e+001
1.031747e+003,1.011545e+001
1.033675e+003,1.011973e+001
1.035604e+003,1.012534e+001
1.037532e+003,1.017183e+001
1.039461e+003,1.025276e+001
1.041389e+003,1.026043e+001
1.043318e+003,1.020908e+001
1.045246e+003,1.033581e+001
1.047175e+003,1.038137e+001
1.049103e+003,1.032705e+001
1.051032e+003,1.034195e+001
1.052960e+003,1.046863e+001
1.054889e+003,1.053924e+001
1.056817e+003,1.055330e+001
1.058746e+003,1.059324e+001
1.060674e+003,1.065105e+001
1.062603e+003,1.069352e+001
1.064531e+003,1.075231e+001
1.066460e+003,1.074544e+001
1.068388e+003,1.073827e+001
1.070317e+003,1.070776e+001
1.072245e+003,1.070239e+001
1.074174e+003,1.070805e+001
1.076102e+003,1.072516e+001
1.078031e+003,1.070894e+001
1.079959e+003,1.075032e+001
1.081888e+003,1.074421e+001
1.083816e+003,1.067570e+001
1.085745e+003,1.065443e+001
1.087673e+003,1.075210e+001
1.089602e+003,1.076495e+001
1.091530e+003,1.081032e+001
1.093459e+003,1.085394e+001
1.095387e+003,1.092756e+001
1.097316e+003,1.099220e+001
1.099244e+003,1.109584e+001
1.101173e+003,1.116080e+001
1.103101e+003,1.120399e+001
1.105030e+003,1.125729e+001
1.106958e+003,1.136340e+001
1.108887e+003,1.144088e+001
1.110815e+003,1.154836e+001
1.112744e+003,1.160035e+001
1.114672e+003,1.167768e+001
1.116601e+003,1.176859e+001
1.118529e+003,1.189635e+001
1.120458e+003,1.196475e+001
1.122386e+003,1.204488e+001
1.124315e+003,1.219894e+001
1.126243e+003,1.230018e+001
1.128172e+003,1.234917e+001
1.130100e+003,1.247323e+001
1.132029e+003,1.264495e+001
1.133957e+003,1.283195e+001
1.135886e+003,1.296435e+001
1.137814e+003,1.315070e+001
1.139743e+003,1.333949e+001
1.141671e+003,1.352515e+001
1.143600e+003,1.368414e+001
1.145528e+003,1.389140e+001
1.147457e+003,1.409089e+001
1.149385e+003,1.423873e+001
1.151314e+003,1.436862e+001
1.153242e+003,1.457937e+001
1.155171e+003,1.480034e+001
1.157099e+003,1.498861e+001
1.159028e+003,1.516492e+001
1.160956e+003,1.538573e+001
1.162885e+003,1.553858e+001
1.164813e+003,1.568288e+001
1.166742e+003,1.586288e+001
1.168670e+003,1.603101e+001
1.170599e+003,1.614311e+001
1.172527e+003,1.629050e+001
1.174456e+003,1.647372e+001
1.176384e+003,1.670649e+001
1.178313e+003,1.694175e+001
1.180241e+003,1.730687e+001
1.182170e+003,1.741377e+001
1.184098e+003,1.733750e+001
1.186027e+003,1.748074e+001
1.187955e+003,1.770116e+001
1.189884e+003,1.783535e+001
1.191812e+003,1.798736e+001
1.193741e+003,1.817529e+001
1.195669e+003,1.833697e+001
1.197598e+003,1.845286e+001
1.199526e+003,1.859947e+001
1.201455e+003,1.876954e+001
1.203383e+003,1.888664e+001
1.205312e+003,1.900903e+001
1.207240e+003,1.918798e+001
1.209169e+003,1.937989e+001
1.211097e+003,1.949851e+001
1.213026e+003,1.957054e+001
1.214954e+003,1.969870e+001
1.216883e+003,1.983960e+001
1.218811e+003,1.994201e+001
1.220740e+003,1.997098e+001
1.222668e+003,2.009293e+001
1.224597e+003,2.023933e+001
1.226525e+003,2.034811e+001
1.228453e+003,2.045816e+001
1.230382e+003,2.059932e+001
1.232311e+003,2.070198e+001
1.234239e+003,2.083422e+001
1.236167e+003,2.096840e+001
1.238096e+003,2.104144e+001
1.240025e+003,2.114715e+001
1.241953e+003,2.133663e+001
1.243882e+003,2.148002e+001
1.245810e+003,2.154489e+001
1.247739e+003,2.159981e+001
1.249667e+003,2.169919e+001
1.251596e+003,2.184585e+001
1.253524e+003,2.196296e+001
1.255453e+003,2.202305e+001
1.257381e+003,2.211912e+001
1.259310e+003,2.227159e+001
1.261238e+003,2.239923e+001
1.263167e+003,2.247547e+001
1.265095e+003,2.260344e+001
1.267024e+003,2.272276e+001
1.268952e+003,2.278458e+001
1.270880e+003,2.284235e+001
1.272809e+003,2.296286e+001
1.274738e+003,2.308284e+001
1.276666e+003,2.318470e+001
1.278594e+003,2.325224e+001
1.280523e+003,2.331652e+001
1.282452e+003,2.345971e+001
1.284380e+003,2.353461e+001
1.286308e+003,2.357811e+001
1.288237e+003,2.369803e+001
1.290166e+003,2.380433e+001
1.292094e+003,2.386778e+001
1.294022e+003,2.395668e+001
1.295951e+003,2.401999e+001
1.297880e+003,2.406733e+001
1.299808e+003,2.419632e+001
1.301736e+003,2.429901e+001
1.303665e+003,2.437145e+001
1.305594e+003,2.447122e+001
1.307522e+003,2.456364e+001
1.309450e+003,2.462579e+001
1.311379e+003,2.462104e+001
1.313307e+003,2.467142e+001
1.315236e+003,2.483575e+001
1.317164e+003,2.491118e+001
1.319093e+003,2.496135e+001
1.321021e+003,2.502480e+001
1.322950e+003,2.508998e+001
1.324878e+003,2.515893e+001
1.326807e+003,2.521120e+001
1.328735e+003,2.524787e+001
1.330664e+003,2.530528e+001
1.332592e+003,2.539204e+001
1.334521e+003,2.541539e+001
1.336449e+003,2.539257e+001
1.338378e+003,2.543843e+001
1.340307e+003,2.557367e+001
1.342235e+003,2.568757e+001
1.344163e+003,2.574873e+001
1.346092e+003,2.575732e+001
1.348021e+003,2.577328e+001
1.349949e+003,2.584278e+001
1.351877e+003,2.589371e+001
1.353806e+003,2.591780e+001
1.355734e+003,2.595454e+001
1.357663e+003,2.598025e+001
1.359591e+003,2.597887e+001
1.361520e+003,2.597569e+001
1.363448e+003,2.607203e+001
1.365377e+003,2.613706e+001
1.367305e+003,2.618228e+001
1.369234e+003,2.621509e+001
1.371162e+003,2.619253e+001
1.373091e+003,2.619162e+001
1.375019e+003,2.632170e+001
1.376948e+003,2.631498e+001
1.378876e+003,2.630095e+001
1.380805e+003,2.634656e+001
1.382733e+003,2.638446e+001
1.384662e+003,2.637043e+001
1.386590e+003,2.639935e+001
1.388519e+003,2.655855e+001
1.390447e+003,2.660587e+001
1.392376e+003,2.651264e+001
1.394304e+003,2.642479e+001
1.396233e+003,2.652950e+001
1.398161e+003,2.661797e+001
1.400090e+003,2.676511e+001
1.402018e+003,2.675342e+001
1.403947e+003,2.675907e+001
1.405875e+003,2.685073e+001
1.407804e+003,2.684300e+001
1.409732e+003,2.680382e+001
1.411661e+003,2.685727e+001
1.413589e+003,2.690727e+001
1.415518e+003,2.687278e+001
1.417446e+003,2.684677e+001
1.419375e+003,2.707783e+001
1.421303e+003,2.714701e+001
1.423232e+003,2.710877e+001
1.425160e+003,2.715937e+001
1.427089e+003,2.714074e+001
1.429017e+003,2.718124e+001
1.430946e+003,2.732000e+001
1.432874e+003,2.731018e+001
1.434803e+003,2.720457e+001
1.436731e+003,2.740805e+001
1.438660e+003,2.761501e+001
1.440588e+003,2.758969e+001
1.442517e+003,2.757360e+001
1.444445e+003,2.757438e+001
1.446374e+003,2.758042e+001
1.448302e+003,2.770021e+001
1.450231e+003,2.772879e+001
1.452159e+003,2.767798e+001
1.454088e+003,2.755164e+001
1.456016e+003,2.741844e+001
1.457945e+003,2.779335e+001
1.459873e+003,2.783632e+001
1.461802e+003,2.774970e+001
1.463730e+003,2.768460e+001
1.465659e+003,2.782838e+001
1.467587e+003,2.782294e+001
1.469516e+003,2.771310e+001
1.471444e+003,2.763196e+001
1.473373e+003,2.773659e+001
1.475301e+003,2.773542e+001
1.477230e+003,2.781592e+001
1.479158e+003,2.777970e+001
1.481087e+003,2.778950e+001
1.483015e+003,2.779041e+001
1.484944e+003,2.772972e+001
1.486872e+003,2.765705e+001
1.488801e+003,2.756832e+001
1.490729e+003,2.776840e+001
1.492658e+003,2.781908e+001
1.494586e+003,2.769204e+001
1.496515e+003,2.776781e+001
1.498443e+003,2.789676e+001
1.500372e+003,2.795271e+001
1.502300e+003,2.790204e+001
1.504229e+003,2.770090e+001
1.506157e+003,2.740870e+001
1.508086e+003,2.782979e+001
1.510014e+003,2.802107e+001
1.511943e+003,2.806985e+001
1.513871e+003,2.798056e+001
1.515800e+003,2.790006e+001
1.517728e+003,2.815626e+001
1.519657e+003,2.808539e+001
1.521585e+003,2.818313e+001
1.523514e+003,2.832807e+001
1.525442e+003,2.828883e+001
1.527371e+003,2.842472e+001
1.529299e+003,2.851221e+001
1.531228e+003,2.841641e+001
1.533156e+003,2.847316e+001
1.535085e+003,2.879097e+001
1.537013e+003,2.858841e+001
1.538942e+003,2.830303e+001
1.540870e+003,2.859986e+001
1.542799e+003,2.882569e+001
1.544727e+003,2.904138e+001
1.546656e+003,2.913355e+001
1.548584e+003,2.903367e+001
1.550513e+003,2.919956e+001
1.552441e+003,2.917392e+001
1.554370e+003,2.914322e+001
1.556298e+003,2.895922e+001
1.558227e+003,2.874108e+001
1.560155e+003,2.960076e+001
1.562084e+003,2.943999e+001
1.564012e+003,2.929965e+001
1.565941e+003,2.930325e+001
1.567869e+003,2.915410e+001
1.569798e+003,2.931059e+001
1.571726e+003,2.941427e+001
1.573655e+003,2.931609e+001
1.575583e+003,2.936643e+001
1.577512e+003,2.950288e+001
1.579440e+003,2.940750e+001
1.581369e+003,2.932596e+001
1.583297e+003,2.929270e+001
1.585226e+003,2.929785e+001
1.587154e+003,2.927481e+001
1.589083e+003,2.918428e+001
1.591011e+003,2.915365e+001
1.592940e+003,2.910120e+001
1.594868e+003,2.905156e+001
1.596797e+003,2.904774e+001
1.598725e+003,2.903391e+001
1.600654e+003,2.899812e+001
1.602582e+003,2.900885e+001
1.604511e+003,2.896400e+001
1.606439e+003,2.885497e+001
1.608368e+003,2.885938e+001
1.610296e+003,2.890504e+001
1.612225e+003,2.886999e+001
1.614153e+003,2.871292e+001
1.616082e+003,2.867437e+001
1.618010e+003,2.891749e+001
1.619939e+003,2.880095e+001
1.621867e+003,2.861811e+001
1.623796e+003,2.876056e+001
1.625724e+003,2.875473e+001
1.627653e+003,2.869328e+001
1.629581e+003,2.874951e+001
1.631510e+003,2.868240e+001
1.633438e+003,2.852018e+001
1.635367e+003,2.852859e+001
1.637295e+003,2.883424e+001
1.639224e+003,2.878587e+001
1.641152e+003,2.873076e+001
1.643081e+003,2.862477e+001
1.645009e+003,2.846179e+001
1.646938e+003,2.858807e+001
1.648866e+003,2.873348e+001
1.650795e+003,2.839769e+001
1.652723e+003,2.836852e+001
1.654652e+003,2.888779e+001
1.656580e+003,2.873213e+001
1.658509e+003,2.863089e+001
1.660437e+003,2.854037e+001
1.662366e+003,2.857713e+001
1.664294e+003,2.871986e+001
1.666223e+003,2.857493e+001
1.668151e+003,2.848068e+001
1.670080e+003,2.858115e+001
1.672008e+003,2.856013e+001
1.673937e+003,2.840668e+001
1.675865e+003,2.853403e+001
1.677794e+003,2.846605e+001
1.679722e+003,2.837829e+001
1.681651e+003,2.826731e+001
1.683579e+003,2.824590e+001
1.685508e+003,2.868055e+001
1.687436e+003,2.849950e+001
1.689365e+003,2.847987e+001
1.691293e+003,2.856281e+001
1.693222e+003,2.839506e+001
1.695150e+003,2.821303e+001
1.697079e+003,2.835375e+001
1.699007e+003,2.830606e+001
1.700936e+003,2.872155e+001
1.702864e+003,2.860468e+001
1.704793e+003,2.852561e+001
1.706721e+003,2.876378e+001
1.708650e+003,2.879532e+001
1.710578e+003,2.881372e+001
1.712507e+003,2.878272e+001
1.714435e+003,2.867610e+001
1.716364e+003,2.852309e+001
1.718292e+003,2.887594e+001
1.720221e+003,2.903109e+001
1.722149e+003,2.899996e+001
1.724078e+003,2.910562e+001
1.726006e+003,2.912495e+001
1.727935e+003,2.901901e+001
1.729863e+003,2.896973e+001
1.731792e+003,2.889915e+001
1.733720e+003,2.898060e+001
1.735649e+003,2.934379e+001
1.737577e+003,2.922810e+001
1.739506e+003,2.929156e+001
1.741434e+003,2.936458e+001
1.743363e+003,2.935226e+001
1.745291e+003,2.935348e+001
1.747220e+003,2.928928e+001
1.749148e+003,2.939060e+001
1.751077e+003,2.958950e+001
1.753005e+003,2.965859e+001
1.754934e+003,2.954486e+001
1.756862e+003,2.962418e+001
1.758791e+003,2.961951e+001
1.760719e+003,2.954129e+001
1.762648e+003,2.970662e+001
1.764576e+003,2.971573e+001
1.766505e+003,2.965993e+001
1.768433e+003,2.969039e+001
1.770362e+003,2.957118e+001
1.772290e+003,2.969031e+001
1.774219e+003,2.979425e+001
1.776147e+003,2.973244e+001
1.778076e+003,2.970876e+001
1.780004e+003,2.975224e+001
1.781933e+003,2.981368e+001
1.783861e+003,2.975446e+001
1.785790e+003,2.983294e+001
1.787718e+003,2.981932e+001
1.789647e+003,2.972704e+001
1.791575e+003,2.971085e+001
1.793504e+003,2.985623e+001
1.795432e+003,2.987808e+001
1.797361e+003,2.986504e+001
1.799289e+003,2.976699e+001
1.801218e+003,2.985847e+001
1.803146e+003,2.997407e+001
1.805075e+003,2.996786e+001
1.807003e+003,2.994648e+001
1.808932e+003,2.996351e+001
1.810860e+003,3.004091e+001
1.812789e+003,3.013287e+001
1.814717e+003,3.012602e+001
1.816646e+003,3.015539e+001
1.818574e+003,3.017778e+001
1.820503e+003,3.016971e+001
1.822431e+003,3.010826e+001
1.824360e+003,3.011228e+001
1.826288e+003,3.018188e+001
1.828217e+003,3.006907e+001
1.830145e+003,3.025487e+001
1.832074e+003,3.035952e+001
1.834002e+003,3.030558e+001
1.835931e+003,3.031466e+001
1.837859e+003,3.034228e+001
1.839788e+003,3.032869e+001
1.841716e+003,3.020639e+001
1.843645e+003,3.025209e+001
1.845573e+003,3.038712e+001
1.847502e+003,3.032359e+001
1.849430e+003,3.032655e+001
1.851359e+003,3.030291e+001
1.853287e+003,3.027116e+001
1.855216e+003,3.024455e+001
1.857144e+003,3.025557e+001
1.859073e+003,3.025173e+001
1.861001e+003,3.022294e+001
1.862930e+003,3.022138e+001
1.864858e+003,3.016199e+001
1.866786e+003,3.007257e+001
1.868715e+003,3.018306e+001
1.870644e+003,3.027785e+001
1.872572e+003,3.026792e+001
1.874500e+003,3.027967e+001
1.876429e+003,3.025538e+001
1.878358e+003,3.025650e+001
1.880286e+003,3.025436e+001
1.882215e+003,3.022659e+001
1.884143e+003,3.019873e+001
1.886072e+003,3.024446e+001
1.888000e+003,3.025444e+001
1.889929e+003,3.031997e+001
1.891857e+003,3.027203e+001
1.893786e+003,3.018637e+001
1.895714e+003,3.021719e+001
1.897643e+003,3.023723e+001
1.899571e+003,3.025935e+001
1.901500e+003,3.027006e+001
1.903428e+003,3.027690e+001
1.905357e+003,3.025101e+001
1.907285e+003,3.020416e+001
1.909214e+003,3.021091e+001
1.911142e+003,3.025108e+001
1.913071e+003,3.024256e+001
1.914999e+003,3.018343e+001
1.916927e+003,3.015683e+001
1.918856e+003,3.022396e+001
1.920785e+003,3.014915e+001
1.922713e+003,3.012635e+001
1.924641e+003,3.016765e+001
1.926570e+003,3.014410e+001
1.928499e+003,3.008326e+001
1.930427e+003,3.002811e+001
1.932355e+003,3.002104e+001
1.934284e+003,3.003272e+001
1.936213e+003,2.999427e+001
1.938141e+003,2.994464e+001
1.940069e+003,2.988998e+001
1.941998e+003,2.987849e+001
1.943927e+003,2.991641e+001
1.945855e+003,2.991170e+001
1.947783e+003,2.990839e+001
1.949712e+003,2.986693e+001
1.951641e+003,2.983327e+001
1.953569e+003,2.981295e+001
1.955497e+003,2.983889e+001
1.957426e+003,2.983366e+001
1.959354e+003,2.984147e+001
1.961283e+003,2.983086e+001
1.963211e+003,2.980779e+001
1.965140e+003,2.974661e+001
1.967068e+003,2.973313e+001
1.968997e+003,2.981775e+001
1.970925e+003,2.984416e+001
1.972854e+003,2.981875e+001
1.974782e+003,2.980483e+001
1.976711e+003,2.980199e+001
1.978639e+003,2.983191e+001
1.980568e+003,2.984119e+001
1.982496e+003,2.982541e+001
1.984425e+003,2.981816e+001
1.986354e+003,2.976900e+001
1.988282e+003,2.972501e+001
1.990210e+003,2.971432e+001
1.992139e+003,2.979896e+001
1.994068e+003,2.987485e+001
1.995996e+003,2.982252e+001
1.997924e+003,2.980005e+001
1.999853e+003,2.982800e+001
2.001781e+003,2.984989e+001
2.003710e+003,2.985639e+001
2.005638e+003,2.985450e+001
2.007567e+003,2.984999e+001
2.009495e+003,2.984965e+001
2.011424e+003,2.983805e+001
2.013352e+003,2.983300e+001
2.015281e+003,2.982092e+001
2.017209e+003,2.984652e+001
2.019138e+003,2.986512e+001
2.021066e+003,2.986562e+001
2.022995e+003,2.986622e+001
2.024923e+003,2.985632e+001
2.026852e+003,2.985848e+001
2.028780e+003,2.986870e+001
2.030709e+003,2.984596e+001
2.032637e+003,2.982384e+001
2.034566e+003,2.982827e+001
2.036494e+003,2.984572e+001
2.038423e+003,2.984976e+001
2.040351e+003,2.986385e+001
2.042280e+003,2.987251e+001
2.044208e+003,2.984283e+001
2.046137e+003,2.981409e+001
2.048065e+003,2.984272e+001
2.049994e+003,2.988626e+001
2.051922e+003,2.987558e+001
2.053851e+003,2.986205e+001
2.055779e+003,2.990250e+001
2.057708e+003,2.991943e+001
2.059636e+003,2.990396e+001
2.061565e+003,2.989849e+001
2.063493e+003,2.989945e+001
2.065422e+003,2.989129e+001
2.067350e+003,2.989516e+001
2.069279e+003,2.990136e+001
2.071207e+003,2.993696e+001
2.073136e+003,2.996473e+001
2.075064e+003,2.994361e+001
2.076993e+003,2.995876e+001
2.078921e+003,2.999976e+001
2.080850e+003,2.998021e+001
2.082778e+003,2.995111e+001
2.084707e+003,2.994914e+001
2.086635e+003,2.996402e+001
2.088564e+003,2.996992e+001
2.090492e+003,2.998064e+001
2.092421e+003,2.999873e+001
2.094349e+003,3.003587e+001
2.096278e+003,3.005781e+001
2.098206e+003,3.003335e+001
2.100135e+003,3.004046e+001
2.102063e+003,3.005969e+001
2.103992e+003,3.003620e+001
2.105920e+003,3.003837e+001
2.107849e+003,3.005280e+001
2.109777e+003,3.009612e+001
2.111706e+003,3.009349e+001
2.113634e+003,3.008433e+001
2.115563e+003,3.013240e+001
2.117491e+003,3.013045e+001
2.119420e+003,3.006818e+001
2.121348e+003,3.002044e+001
2.123277e+003,3.004384e+001
2.125205e+003,3.008419e+001
2.127134e+003,3.007737e+001
2.129062e+003,3.004914e+001
2.130991e+003,3.004808e+001
2.132919e+003,3.005467e+001
2.134848e+003,3.005969e+001
2.136776e+003,3.003370e+001
2.138705e+003,3.000490e+001
2.140633e+003,3.002472e+001
2.142562e+003,3.004307e+001
2.144490e+003,3.004943e+001
2.146419e+003,3.001584e+001
2.148347e+003,3.001560e+001
2.150276e+003,3.003608e+001
2.152204e+003,3.008570e+001
2.154133e+003,3.010075e+001
2.156061e+003,3.010789e+001
2.157990e+003,3.009667e+001
2.159918e+003,3.009801e+001
2.161847e+003,3.005793e+001
2.163775e+003,3.003090e+001
2.165704e+003,3.004903e+001
2.167632e+003,3.006332e+001
2.169561e+003,3.001438e+001
2.171489e+003,3.000209e+001
2.173418e+003,3.002982e+001
2.175346e+003,3.003099e+001
2.177275e+003,3.003311e+001
2.179203e+003,3.003535e+001
2.181132e+003,3.000863e+001
2.183060e+003,3.000715e+001
2.184989e+003,2.999109e+001
2.186917e+003,2.995644e+001
2.188846e+003,2.999856e+001
2.190774e+003,3.002769e+001
2.192703e+003,3.000357e+001
2.194631e+003,2.999373e+001
2.196560e+003,2.999003e+001
2.198488e+003,2.997743e+001
2.200417e+003,2.997478e+001
2.202345e+003,2.994288e+001
2.204274e+003,2.992446e+001
2.206202e+003,2.990760e+001
2.208131e+003,2.992625e+001
2.210059e+003,2.997451e+001
2.211988e+003,2.997652e+001
2.213916e+003,2.995982e+001
2.215845e+003,2.991949e+001
2.217773e+003,2.988794e+001
2.219702e+003,2.984980e+001
2.221630e+003,2.986132e+001
2.223559e+003,2.987261e+001
2.225487e+003,2.981982e+001
2.227416e+003,2.977863e+001
2.229344e+003,2.975622e+001
2.231273e+003,2.976110e+001
2.233201e+003,2.977807e+001
2.235130e+003,2.975763e+001
2.237058e+003,2.976819e+001
2.238987e+003,2.978615e+001
2.240915e+003,2.975914e+001
2.242844e+003,2.971496e+001
2.244772e+003,2.970490e+001
2.246701e+003,2.969941e+001
2.248629e+003,2.967597e+001
2.250558e+003,2.968040e+001
2.252486e+003,2.969506e+001
2.254415e+003,2.967480e+001
2.256343e+003,2.966631e+001
2.258272e+003,2.968236e+001
2.260200e+003,2.967670e+001
2.262129e+003,2.966258e+001
2.264057e+003,2.966524e+001
2.265986e+003,2.968089e+001
2.267914e+003,2.966039e+001
2.269843e+003,2.963094e+001
2.271771e+003,2.964087e+001
2.273700e+003,2.963448e+001
2.275628e+003,2.965598e+001
2.277557e+003,2.968513e+001
2.279485e+003,2.969344e+001
2.281414e+003,2.967042e+001
2.283342e+003,2.962514e+001
2.285271e+003,2.961707e+001
2.287199e+003,2.962217e+001
2.289128e+003,2.957727e+001
2.291056e+003,2.952693e+001
2.292985e+003,2.949303e+001
2.294913e+003,2.949308e+001
2.296842e+003,2.941805e+001
2.298770e+003,2.934618e+001
2.300699e+003,2.934778e+001
2.302627e+003,2.928712e+001
2.304556e+003,2.921538e+001
2.306484e+003,2.921812e+001
2.308413e+003,2.920012e+001
2.310341e+003,2.910223e+001
2.312270e+003,2.900617e+001
2.314198e+003,2.895842e+001
2.316127e+003,2.890049e+001
2.318055e+003,2.885350e+001
2.319984e+003,2.878595e+001
2.321912e+003,2.865075e+001
2.323841e+003,2.857656e+001
2.325769e+003,2.853061e+001
2.327698e+003,2.841198e+001
2.329626e+003,2.831999e+001
2.331555e+003,2.824889e+001
2.333483e+003,2.827911e+001
2.335412e+003,2.829607e+001
2.337340e+003,2.823936e+001
2.339269e+003,2.823479e+001
2.341197e+003,2.817919e+001
2.343126e+003,2.814072e+001
2.345054e+003,2.826885e+001
2.346983e+003,2.855094e+001
2.348911e+003,2.854109e+001
2.350840e+003,2.824343e+001
2.352768e+003,2.805973e+001
2.354697e+003,2.784290e+001
2.356625e+003,2.768068e+001
2.358554e+003,2.769093e+001
2.360482e+003,2.790652e+001
2.362411e+003,2.813137e+001
2.364339e+003,2.805621e+001
2.366268e+003,2.802311e+001
2.368196e+003,2.801777e+001
2.370125e+003,2.819584e+001
2.372053e+003,2.841393e+001
2.373982e+003,2.859531e+001
2.375910e+003,2.873817e+001
2.377839e+003,2.883829e+001
2.379767e+003,2.890513e+001
2.381696e+003,2.899335e+001
2.383624e+003,2.909121e+001
2.385553e+003,2.916159e+001
2.387481e+003,2.921372e+001
2.389410e+003,2.924137e+001
2.391338e+003,2.922154e+001
2.393267e+003,2.921642e+001
2.395195e+003,2.917990e+001
2.397124e+003,2.911807e+001
2.399052e+003,2.911901e+001
2.400981e+003,2.914077e+001
2.402909e+003,2.909876e+001
2.404838e+003,2.910205e+001
2.406766e+003,2.911861e+001
2.408695e+003,2.909489e+001
2.410623e+003,2.907833e+001
2.412552e+003,2.906721e+001
2.414480e+003,2.903483e+001
2.416409e+003,2.902275e+001
2.418337e+003,2.905461e+001
2.420266e+003,2.905785e+001
2.422194e+003,2.903378e+001
2.424123e+003,2.903166e+001
2.426051e+003,2.901378e+001
2.427980e+003,2.901056e+001
2.429908e+003,2.899534e+001
2.431837e+003,2.895809e+001
2.433765e+003,2.896203e+001
2.435694e+003,2.893380e+001
2.437622e+003,2.890419e+001
2.439551e+003,2.890738e+001
2.441479e+003,2.891990e+001
2.443408e+003,2.892706e+001
2.445336e+003,2.889765e+001
2.447265e+003,2.887872e+001
2.449193e+003,2.890296e+001
2.451122e+003,2.887355e+001
2.453050e+003,2.884237e+001
2.454979e+003,2.886438e+001
2.456907e+003,2.885944e+001
2.458836e+003,2.888172e+001
2.460764e+003,2.887617e+001
2.462693e+003,2.880734e+001
2.464621e+003,2.878789e+001
2.466550e+003,2.882145e+001
2.468478e+003,2.883680e+001
2.470406e+003,2.878537e+001
2.472335e+003,2.875830e+001
2.474264e+003,2.876349e+001
2.476192e+003,2.875740e+001
2.478121e+003,2.871726e+001
2.480049e+003,2.868060e+001
2.481978e+003,2.867708e+001
2.483906e+003,2.868082e+001
2.485834e+003,2.867113e+001
2.487763e+003,2.868093e+001
2.489692e+003,2.871383e+001
2.491620e+003,2.870133e+001
2.493549e+003,2.862899e+001
2.495477e+003,2.863911e+001
2.497406e+003,2.865852e+001
2.499334e+003,2.865203e+001
2.501262e+003,2.863750e+001
2.503191e+003,2.863731e+001
2.505120e+003,2.863486e+001
2.507048e+003,2.860828e+001
2.508977e+003,2.856814e+001
2.510905e+003,2.855749e+001
2.512833e+003,2.856860e+001
2.514762e+003,2.859039e+001
2.516690e+003,2.860600e+001
2.518619e+003,2.859667e+001
2.520548e+003,2.857412e+001
2.522476e+003,2.858540e+001
2.524405e+003,2.857036e+001
2.526333e+003,2.851302e+001
2.528261e+003,2.844064e+001
2.530190e+003,2.843047e+001
2.532119e+003,2.845568e+001
2.534047e+003,2.846431e+001
2.535976e+003,2.850816e+001
2.537904e+003,2.850037e+001
2.539833e+003,2.845704e+001
2.541761e+003,2.843966e+001
2.543689e+003,2.844298e+001
2.545618e+003,2.841278e+001
2.547547e+003,2.842051e+001
2.549475e+003,2.843430e+001
2.551404e+003,2.836900e+001
2.553332e+003,2.836862e+001
2.555260e+003,2.837478e+001
2.557189e+003,2.836756e+001
2.559117e+003,2.837197e+001
2.561046e+003,2.836893e+001
2.562975e+003,2.834921e+001
2.564903e+003,2.833670e+001
2.566832e+003,2.833165e+001
2.568760e+003,2.832712e+001
2.570688e+003,2.824473e+001
2.572617e+003,2.821881e+001
2.574545e+003,2.824640e+001
2.576474e+003,2.822376e+001
2.578403e+003,2.817921e+001
2.580331e+003,2.818088e+001
2.582260e+003,2.820411e+001
2.584188e+003,2.819455e+001
2.586116e+003,2.815946e+001
2.588045e+003,2.814063e+001
2.589973e+003,2.813881e+001
2.591902e+003,2.816735e+001
2.593831e+003,2.816682e+001
2.595759e+003,2.815075e+001
2.597688e+003,2.813605e+001
2.599616e+003,2.811713e+001
2.601544e+003,2.809776e+001
2.603473e+003,2.807110e+001
2.605401e+003,2.809149e+001
2.607330e+003,2.810398e+001
2.609259e+003,2.806700e+001
2.611187e+003,2.802568e+001
2.613115e+003,2.798808e+001
2.615044e+003,2.799842e+001
2.616972e+003,2.803617e+001
2.618901e+003,2.802670e+001
2.620830e+003,2.800938e+001
2.622758e+003,2.797310e+001
2.624687e+003,2.797686e+001
2.626615e+003,2.796799e+001
2.628543e+003,2.789777e+001
2.630472e+003,2.787863e+001
2.632400e+003,2.787676e+001
2.634329e+003,2.788059e+001
2.636258e+003,2.790229e+001
2.638186e+003,2.789235e+001
2.640115e+003,2.788006e+001
2.642043e+003,2.788242e+001
2.643971e+003,2.787325e+001
2.645900e+003,2.783031e+001
2.647828e+003,2.779673e+001
2.649757e+003,2.780925e+001
2.651686e+003,2.781115e+001
2.653614e+003,2.779114e+001
2.655542e+003,2.774805e+001
2.657471e+003,2.772822e+001
2.659399e+003,2.772561e+001
2.661328e+003,2.769559e+001
2.663256e+003,2.772692e+001
2.665185e+003,2.774369e+001
2.667114e+003,2.773272e+001
2.669042e+003,2.773426e+001
2.670970e+003,2.773847e+001
2.672899e+003,2.772699e+001
2.674827e+003,2.773485e+001
2.676756e+003,2.768115e+001
2.678684e+003,2.759105e+001
2.680613e+003,2.752686e+001
2.682542e+003,2.756344e+001
2.684470e+003,2.756449e+001
2.686398e+003,2.757745e+001
2.688327e+003,2.761979e+001
2.690255e+003,2.759866e+001
2.692184e+003,2.755206e+001
2.694112e+003,2.756711e+001
2.696041e+003,2.759952e+001
2.697969e+003,2.762004e+001
2.699898e+003,2.756450e+001
2.701826e+003,2.747445e+001
2.703755e+003,2.749759e+001
2.705683e+003,2.754405e+001
2.707612e+003,2.751877e+001
2.709540e+003,2.749341e+001
2.711469e+003,2.751575e+001
2.713397e+003,2.752359e+001
2.715326e+003,2.747689e+001
2.717254e+003,2.745165e+001
2.719183e+003,2.744469e+001
2.721111e+003,2.740967e+001
2.723040e+003,2.743274e+001
2.724969e+003,2.745149e+001
2.726897e+003,2.741831e+001
2.728825e+003,2.738103e+001
2.730754e+003,2.740471e+001
2.732682e+003,2.741490e+001
2.734611e+003,2.736549e+001
2.736539e+003,2.733964e+001
2.738468e+003,2.734467e+001
2.740396e+003,2.734061e+001
2.742325e+003,2.734378e+001
2.744253e+003,2.736542e+001
2.746182e+003,2.734970e+001
2.748110e+003,2.734028e+001
2.750039e+003,2.730750e+001
2.751967e+003,2.729883e+001
2.753896e+003,2.724414e+001
2.755824e+003,2.713232e+001
2.757753e+003,2.715970e+001
2.759681e+003,2.721722e+001
2.761610e+003,2.724367e+001
2.763538e+003,2.718511e+001
2.765467e+003,2.720653e+001
2.767395e+003,2.723779e+001
2.769324e+003,2.720810e+001
2.771252e+003,2.716284e+001
2.773181e+003,2.714064e+001
2.775109e+003,2.714219e+001
2.777038e+003,2.712687e+001
2.778966e+003,2.715177e+001
2.780895e+003,2.718512e+001
2.782823e+003,2.713498e+001
2.784752e+003,2.708609e+001
2.786680e+003,2.709183e+001
2.788609e+003,2.708166e+001
2.790537e+003,2.705604e+001
2.792466e+003,2.703910e+001
2.794394e+003,2.703854e+001
2.796323e+003,2.701974e+001
2.798251e+003,2.704268e+001
2.800180e+003,2.706425e+001
2.802108e+003,2.703399e+001
2.804037e+003,2.700723e+001
2.805965e+003,2.702231e+001
2.807894e+003,2.696864e+001
2.809822e+003,2.691465e+001
2.811751e+003,2.689153e+001
2.813679e+003,2.685826e+001
2.815608e+003,2.683624e+001
2.817536e+003,2.689785e+001
2.819465e+003,2.688918e+001
2.821393e+003,2.685558e+001
2.823322e+003,2.684302e+001
2.825250e+003,2.677711e+001
2.827179e+003,2.675522e+001
2.829107e+003,2.678073e+001
2.831036e+003,2.675970e+001
2.832964e+003,2.681091e+001
2.834893e+003,2.686908e+001
2.836821e+003,2.679351e+001
2.838750e+003,2.673096e+001
2.840678e+003,2.668703e+001
2.842607e+003,2.665591e+001
2.844535e+003,2.666030e+001
2.846464e+003,2.661077e+001
2.848392e+003,2.654742e+001
2.850321e+003,2.652357e+001
2.852249e+003,2.651541e+001
2.854178e+003,2.652103e+001
2.856106e+003,2.656966e+001
2.858035e+003,2.661225e+001
2.859963e+003,2.663713e+001
2.861892e+003,2.663503e+001
2.863820e+003,2.661890e+001
2.865749e+003,2.658141e+001
2.867677e+003,2.659906e+001
2.869606e+003,2.656789e+001
2.871534e+003,2.652136e+001
2.873463e+003,2.653085e+001
2.875391e+003,2.652037e+001
2.877320e+003,2.648990e+001
2.879248e+003,2.649890e+001
2.881177e+003,2.649835e+001
2.883105e+003,2.649852e+001
2.885034e+003,2.647606e+001
2.886962e+003,2.642255e+001
2.888891e+003,2.639837e+001
2.890819e+003,2.636407e+001
2.892748e+003,2.634198e+001
2.894676e+003,2.639083e+001
2.896605e+003,2.640072e+001
2.898533e+003,2.634781e+001
2.900462e+003,2.634552e+001
2.902390e+003,2.634581e+001
2.904319e+003,2.627285e+001
2.906247e+003,2.623378e+001
2.908176e+003,2.622848e+001
2.910104e+003,2.623867e+001
2.912033e+003,2.623824e+001
2.913961e+003,2.616805e+001
2.915890e+003,2.614092e+001
2.917818e+003,2.610957e+001
2.919747e+003,2.604421e+001
2.921675e+003,2.598486e+001
2.923604e+003,2.601259e+001
2.925532e+003,2.605647e+001
2.927461e+003,2.603568e+001
2.929389e+003,2.606245e+001
2.931318e+003,2.604748e+001
2.933246e+003,2.602196e+001
2.935175e+003,2.604678e+001
2.937103e+003,2.607644e+001
2.939032e+003,2.604502e+001
2.940960e+003,2.603267e+001
2.942889e+003,2.608089e+001
2.944817e+003,2.609994e+001
2.946746e+003,2.604907e+001
2.948674e+003,2.598224e+001
2.950603e+003,2.593537e+001
2.952531e+003,2.596423e+001
2.954460e+003,2.598082e+001
2.956388e+003,2.601383e+001
2.958317e+003,2.603718e+001
2.960245e+003,2.595155e+001
2.962174e+003,2.587157e+001
2.964102e+003,2.588286e+001
2.966031e+003,2.589660e+001
2.967959e+003,2.591675e+001
2.969888e+003,2.593775e+001
2.971816e+003,2.590351e+001
2.973745e+003,2.589595e+001
2.975673e+003,2.592423e+001
2.977602e+003,2.593818e+001
2.979530e+003,2.598233e+001
2.981459e+003,2.597245e+001
2.983387e+003,2.592040e+001
2.985316e+003,2.587853e+001
2.987244e+003,2.584314e+001
2.989173e+003,2.586541e+001
2.991101e+003,2.584916e+001
2.993030e+003,2.578173e+001
2.994958e+003,2.577396e+001
2.996887e+003,2.577169e+001
2.998815e+003,2.575549e+001
3.000744e+003,2.580262e+001
3.002672e+003,2.578442e+001
3.004601e+003,2.569550e+001
3.006529e+003,2.566258e+001
3.008458e+003,2.568547e+001
3.010386e+003,2.570249e+001
3.012315e+003,2.573610e+001
3.014243e+003,2.573138e+001
3.016172e+003,2.572965e+001
3.018100e+003,2.567481e+001
3.020029e+003,2.562161e+001
3.021957e+003,2.564344e+001
3.023886e+003,2.573344e+001
3.025814e+003,2.578029e+001
3.027743e+003,2.568934e+001
3.029671e+003,2.562386e+001
3.031600e+003,2.565444e+001
3.033528e+003,2.567481e+001
3.035457e+003,2.561097e+001
3.037385e+003,2.553029e+001
3.039314e+003,2.552098e+001
3.041242e+003,2.558389e+001
3.043171e+003,2.560015e+001
3.045099e+003,2.558761e+001
3.047028e+003,2.557342e+001
3.048956e+003,2.552056e+001
3.050885e+003,2.550626e+001
3.052813e+003,2.554140e+001
3.054742e+003,2.555383e+001
3.056670e+003,2.549560e+001
3.058599e+003,2.545028e+001
3.060527e+003,2.543811e+001
3.062456e+003,2.539727e+001
3.064384e+003,2.534410e+001
3.066313e+003,2.538000e+001
3.068241e+003,2.543483e+001
3.070170e+003,2.538352e+001
3.072098e+003,2.532148e+001
3.074027e+003,2.534510e+001
3.075955e+003,2.530983e+001
3.077884e+003,2.523469e+001
3.079812e+003,2.521525e+001
3.081741e+003,2.526192e+001
3.083669e+003,2.533545e+001
3.085598e+003,2.535968e+001
3.087526e+003,2.535116e+001
3.089455e+003,2.534903e+001
3.091383e+003,2.532969e+001
3.093312e+003,2.520853e+001
3.095240e+003,2.512116e+001
3.097169e+003,2.515956e+001
3.099097e+003,2.519201e+001
3.101026e+003,2.517418e+001
3.102954e+003,2.514450e+001
3.104883e+003,2.515119e+001
3.106811e+003,2.516916e+001
3.108740e+003,2.518974e+001
3.110668e+003,2.513299e+001
3.112597e+003,2.504521e+001
3.114525e+003,2.504473e+001
3.116454e+003,2.506737e+001
3.118382e+003,2.506393e+001
3.120311e+003,2.506853e+001
3.122239e+003,2.510987e+001
3.124167e+003,2.504904e+001
3.126096e+003,2.493690e+001
3.128025e+003,2.490852e+001
3.129953e+003,2.495558e+001
3.131882e+003,2.498329e+001
3.133810e+003,2.494946e+001
3.135739e+003,2.490671e+001
3.137667e+003,2.489463e+001
3.139595e+003,2.492463e+001
3.141524e+003,2.491355e+001
3.143453e+003,2.486419e+001
3.145381e+003,2.480511e+001
3.147310e+003,2.472817e+001
3.149238e+003,2.468524e+001
3.151167e+003,2.466913e+001
3.153095e+003,2.475172e+001
3.155023e+003,2.479254e+001
3.156952e+003,2.477782e+001
3.158881e+003,2.471973e+001
3.160809e+003,2.474607e+001
3.162738e+003,2.476370e+001
3.164666e+003,2.477575e+001
3.166594e+003,2.476609e+001
3.168523e+003,2.470730e+001
3.170452e+003,2.466597e+001
3.172380e+003,2.461173e+001
3.174309e+003,2.455747e+001
3.176237e+003,2.455907e+001
3.178166e+003,2.457669e+001
3.180094e+003,2.457516e+001
3.182022e+003,2.456974e+001
3.183951e+003,2.458549e+001
3.185880e+003,2.456389e+001
3.187808e+003,2.452083e+001
3.189737e+003,2.452356e+001
3.191665e+003,2.448336e+001
3.193594e+003,2.444803e+001
3.195522e+003,2.443270e+001
3.197450e+003,2.438050e+001
3.199379e+003,2.432269e+001
3.201308e+003,2.435616e+001
3.203236e+003,2.441519e+001
3.205165e+003,2.440668e+001
3.207093e+003,2.441549e+001
3.209021e+003,2.435779e+001
3.210950e+003,2.431719e+001
3.212878e+003,2.436254e+001
3.214807e+003,2.426724e+001
3.216736e+003,2.418277e+001
3.218664e+003,2.418909e+001
3.220593e+003,2.421296e+001
3.222521e+003,2.415673e+001
3.224449e+003,2.410747e+001
3.226378e+003,2.409013e+001
3.228306e+003,2.418087e+001
3.230235e+003,2.424766e+001
3.232164e+003,2.413719e+001
3.234092e+003,2.409648e+001
3.236021e+003,2.412344e+001
3.237949e+003,2.415792e+001
3.239877e+003,2.404101e+001
3.241806e+003,2.397287e+001
3.243734e+003,2.399435e+001
3.245663e+003,2.399910e+001
3.247592e+003,2.405727e+001
3.249520e+003,2.400171e+001
3.251448e+003,2.390958e+001
3.253377e+003,2.387729e+001
3.255305e+003,2.385027e+001
3.257234e+003,2.387727e+001
3.259162e+003,2.390289e+001
3.261091e+003,2.394272e+001
3.263020e+003,2.389780e+001
3.264948e+003,2.382814e+001
3.266876e+003,2.378407e+001
3.268805e+003,2.373742e+001
3.270733e+003,2.376138e+001
3.272662e+003,2.373417e+001
3.274591e+003,2.365161e+001
3.276519e+003,2.365816e+001
3.278448e+003,2.376977e+001
3.280376e+003,2.382725e+001
3.282304e+003,2.373942e+001
3.284233e+003,2.368431e+001
3.286161e+003,2.367791e+001
3.288090e+003,2.369879e+001
3.290019e+003,2.367112e+001
3.291947e+003,2.355816e+001
3.293875e+003,2.351366e+001
3.295804e+003,2.350858e+001
3.297732e+003,2.350356e+001
3.299661e+003,2.350583e+001
3.301589e+003,2.354604e+001
3.303518e+003,2.356092e+001
3.305447e+003,2.353617e+001
3.307375e+003,2.344966e+001
3.309303e+003,2.342391e+001
3.311232e+003,2.338077e+001
3.313160e+003,2.339183e+001
3.315089e+003,2.343577e+001
3.317017e+003,2.339363e+001
3.318946e+003,2.338691e+001
3.320875e+003,2.337403e+001
3.322803e+003,2.329557e+001
3.324731e+003,2.325505e+001
3.326660e+003,2.319793e+001
3.328588e+003,2.322080e+001
3.330517e+003,2.320840e+001
3.332445e+003,2.320140e+001
3.334374e+003,2.324840e+001
3.336302e+003,2.317721e+001
3.338231e+003,2.308942e+001
3.340159e+003,2.305004e+001
3.342088e+003,2.308038e+001
3.344016e+003,2.310714e+001
3.345945e+003,2.307631e+001
3.347873e+003,2.310223e+001
3.349802e+003,2.311750e+001
3.351730e+003,2.305545e+001
3.353659e+003,2.299721e+001
3.355587e+003,2.304809e+001
3.357516e+003,2.306353e+001
3.359444e+003,2.300809e+001
3.361373e+003,2.296060e+001
3.363302e+003,2.282251e+001
3.365230e+003,2.279564e+001
3.367158e+003,2.284988e+001
3.369087e+003,2.279379e+001
3.371015e+003,2.271172e+001
3.372944e+003,2.270935e+001
3.374872e+003,2.273767e+001
3.376801e+003,2.266826e+001
3.378729e+003,2.263020e+001
3.380658e+003,2.266385e+001
3.382586e+003,2.267786e+001
3.384515e+003,2.263714e+001
3.386443e+003,2.254599e+001
3.388372e+003,2.254389e+001
3.390300e+003,2.250118e+001
3.392229e+003,2.244641e+001
3.394157e+003,2.245467e+001
3.396086e+003,2.240013e+001
3.398014e+003,2.237075e+001
3.399943e+003,2.240942e+001
3.401871e+003,2.250805e+001
3.403800e+003,2.251669e+001
3.405728e+003,2.236140e+001
3.407657e+003,2.233912e+001
3.409585e+003,2.241480e+001
3.411514e+003,2.238249e+001
3.413442e+003,2.229375e+001
3.415371e+003,2.224779e+001
3.417299e+003,2.231719e+001
3.419228e+003,2.230881e+001
3.421156e+003,2.232430e+001
3.423085e+003,2.235835e+001
3.425013e+003,2.235849e+001
3.426942e+003,2.234703e+001
3.428870e+003,2.226252e+001
3.430799e+003,2.219590e+001
3.432727e+003,2.221844e+001
3.434656e+003,2.224276e+001
3.436584e+003,2.214056e+001
3.438513e+003,2.212209e+001
3.440441e+003,2.215082e+001
3.442370e+003,2.211194e+001
3.444298e+003,2.203414e+001
3.446227e+003,2.197467e+001
3.448155e+003,2.199059e+001
3.450084e+003,2.200254e+001
3.452012e+003,2.206960e+001
3.453941e+003,2.216988e+001
3.455869e+003,2.222381e+001
3.457798e+003,2.225718e+001
3.459726e+003,2.220963e+001
3.461655e+003,2.212368e+001
3.463583e+003,2.205564e+001
3.465512e+003,2.198848e+001
3.467440e+003,2.199728e+001
3.469369e+003,2.194510e+001
3.471297e+003,2.201408e+001
3.473226e+003,2.219890e+001
3.475154e+003,2.221920e+001
3.477083e+003,2.216714e+001
3.479011e+003,2.213465e+001
3.480940e+003,2.211911e+001
3.482868e+003,2.209880e+001
3.484797e+003,2.195158e+001
3.486725e+003,2.202505e+001
3.488654e+003,2.214113e+001
3.490582e+003,2.208321e+001
3.492511e+003,2.207915e+001
3.494439e+003,2.210483e+001
3.496368e+003,2.219098e+001
3.498296e+003,2.223827e+001
3.500225e+003,2.205712e+001
3.502153e+003,2.192811e+001
3.504082e+003,2.209122e+001
3.506010e+003,2.206836e+001
3.507939e+003,2.198527e+001
3.509867e+003,2.211791e+001
3.511796e+003,2.229087e+001
3.513724e+003,2.220763e+001
3.515653e+003,2.204983e+001
3.517581e+003,2.197050e+001
3.519510e+003,2.199593e+001
3.521438e+003,2.203825e+001
3.523367e+003,2.210104e+001
3.525295e+003,2.206606e+001
3.527224e+003,2.216442e+001
3.529152e+003,2.220322e+001
3.531081e+003,2.209609e+001
3.533009e+003,2.209850e+001
3.534938e+003,2.207586e+001
3.536866e+003,2.212700e+001
3.538795e+003,2.223063e+001
3.540723e+003,2.224439e+001
3.542652e+003,2.217903e+001
3.544580e+003,2.213461e+001
3.546509e+003,2.217539e+001
3.548437e+003,2.232460e+001
3.550366e+003,2.229065e+001
3.552294e+003,2.219910e+001
3.554223e+003,2.214223e+001
3.556151e+003,2.225531e+001
3.558080e+003,2.230039e+001
3.560008e+003,2.220407e+001
3.561937e+003,2.225375e+001
3.563865e+003,2.220012e+001
3.565794e+003,2.201604e+001
3.567722e+003,2.235600e+001
3.569651e+003,2.244087e+001
3.571579e+003,2.233160e+001
3.573508e+003,2.232811e+001
3.575436e+003,2.231936e+001
3.577365e+003,2.228238e+001
3.579293e+003,2.226774e+001
3.581222e+003,2.234282e+001
3.583150e+003,2.222783e+001
3.585079e+003,2.204030e+001
3.587007e+003,2.215861e+001
3.588936e+003,2.244140e+001
3.590864e+003,2.240211e+001
3.592793e+003,2.228823e+001
3.594721e+003,2.231771e+001
3.596650e+003,2.238397e+001
3.598578e+003,2.227531e+001
3.600507e+003,2.227852e+001
3.602435e+003,2.242445e+001
3.604364e+003,2.244475e+001
3.606292e+003,2.235390e+001
3.608221e+003,2.243467e+001
3.610149e+003,2.241306e+001
3.612078e+003,2.239629e+001
3.614006e+003,2.246286e+001
3.615935e+003,2.233253e+001
3.617863e+003,2.244025e+001
3.619792e+003,2.274609e+001
3.621720e+003,2.263444e+001
3.623649e+003,2.244534e+001
3.625577e+003,2.228210e+001
3.627506e+003,2.229821e+001
3.629434e+003,2.264505e+001
3.631363e+003,2.264089e+001
3.633291e+003,2.271197e+001
3.635220e+003,2.266135e+001
3.637148e+003,2.249015e+001
3.639077e+003,2.256235e+001
3.641005e+003,2.277629e+001
3.642934e+003,2.274446e+001
3.644862e+003,2.251867e+001
3.646791e+003,2.244453e+001
3.648719e+003,2.231109e+001
3.650648e+003,2.263075e+001
3.652576e+003,2.284181e+001
3.654505e+003,2.273782e+001
3.656433e+003,2.281273e+001
3.658362e+003,2.269188e+001
3.660290e+003,2.265582e+001
3.662219e+003,2.274030e+001
3.664147e+003,2.272795e+001
3.666076e+003,2.269016e+001
3.668004e+003,2.258361e+001
3.669933e+003,2.292931e+001
3.671861e+003,2.287074e+001
3.673790e+003,2.251958e+001
3.675718e+003,2.276916e+001
3.677647e+003,2.266287e+001
3.679575e+003,2.253992e+001
3.681504e+003,2.260690e+001
3.683432e+003,2.266018e+001
3.685361e+003,2.260854e+001
3.687289e+003,2.256886e+001
3.689218e+003,2.256791e+001
3.691146e+003,2.248666e+001
3.693075e+003,2.270912e+001
3.695003e+003,2.281318e+001
3.696932e+003,2.273318e+001
3.698860e+003,2.251486e+001
3.700789e+003,2.247485e+001
3.702717e+003,2.262500e+001
3.704646e+003,2.267658e+001
3.706574e+003,2.260985e+001
3.708503e+003,2.242867e+001
3.710431e+003,2.245419e+001
3.712360e+003,2.278662e+001
3.714288e+003,2.262717e+001
3.716217e+003,2.256868e+001
3.718145e+003,2.259110e+001
3.720074e+003,2.253586e+001
3.722002e+003,2.260579e+001
3.723931e+003,2.253345e+001
3.725859e+003,2.262876e+001
3.727788e+003,2.259599e+001
3.729716e+003,2.218609e+001
3.731645e+003,2.203615e+001
3.733573e+003,2.235838e+001
3.735502e+003,2.282761e+001
3.737430e+003,2.269594e+001
3.739359e+003,2.243488e+001
3.741287e+003,2.220594e+001
3.743216e+003,2.197104e+001
3.745144e+003,2.237811e+001
3.747073e+003,2.248795e+001
3.749001e+003,2.276252e+001
3.750930e+003,2.274376e+001
3.752858e+003,2.277320e+001
3.754787e+003,2.266978e+001
3.756715e+003,2.244994e+001
3.758644e+003,2.233582e+001
3.760572e+003,2.260391e+001
3.762500e+003,2.262531e+001
3.764429e+003,2.256207e+001
3.766358e+003,2.258596e+001
3.768286e+003,2.252042e+001
3.770215e+003,2.267883e+001
3.772143e+003,2.275876e+001
3.774072e+003,2.262656e+001
3.776000e+003,2.247112e+001
3.777928e+003,2.245866e+001
3.779857e+003,2.284604e+001
3.781786e+003,2.268967e+001
3.783714e+003,2.244812e+001
3.785643e+003,2.251992e+001
3.787571e+003,2.263308e+001
3.789500e+003,2.265475e+001
3.791428e+003,2.262379e+001
3.793356e+003,2.251874e+001
3.795285e+003,2.238797e+001
3.797214e+003,2.237652e+001
3.799142e+003,2.226200e+001
3.801071e+003,2.235276e+001
3.802999e+003,2.249854e+001
3.804927e+003,2.238866e+001
3.806856e+003,2.270578e+001
3.808785e+003,2.262951e+001
3.810713e+003,2.244177e+001
3.812642e+003,2.229950e+001
3.814570e+003,2.226599e+001
3.816499e+003,2.243822e+001
3.818427e+003,2.217605e+001
3.820355e+003,2.239120e+001
3.822284e+003,2.259793e+001
3.824213e+003,2.237173e+001
3.826141e+003,2.245731e+001
3.828070e+003,2.256329e+001
3.829998e+003,2.250876e+001
3.831927e+003,2.241602e+001
3.833855e+003,2.228768e+001
3.835783e+003,2.227599e+001
3.837712e+003,2.249174e+001
3.839641e+003,2.251952e+001
3.841569e+003,2.233712e+001
3.843498e+003,2.231336e+001
3.845426e+003,2.234660e+001
3.847354e+003,2.227204e+001
3.849283e+003,2.221029e+001
3.851211e+003,2.211695e+001
3.853140e+003,2.234433e+001
3.855069e+003,2.244203e+001
3.856997e+003,2.231801e+001
3.858926e+003,2.233171e+001
3.860854e+003,2.225212e+001
3.862782e+003,2.222805e+001
3.864711e+003,2.230366e+001
3.866639e+003,2.228742e+001
3.868568e+003,2.207986e+001
3.870497e+003,2.218343e+001
3.872425e+003,2.203650e+001
3.874354e+003,2.209413e+001
3.876282e+003,2.228574e+001
3.878210e+003,2.226837e+001
3.880139e+003,2.239181e+001
3.882067e+003,2.247280e+001
3.883996e+003,2.223647e+001
3.885925e+003,2.231421e+001
3.887853e+003,2.222173e+001
3.889781e+003,2.207500e+001
3.891710e+003,2.220782e+001
3.893638e+003,2.228519e+001
3.895567e+003,2.227397e+001
3.897495e+003,2.232974e+001
3.899424e+003,2.234334e+001
3.901353e+003,2.231059e+001
3.903281e+003,2.216393e+001
3.905209e+003,2.213011e+001
3.907138e+003,2.217713e+001
3.909066e+003,2.223178e+001
3.910995e+003,2.232469e+001
3.912924e+003,2.228075e+001
3.914852e+003,2.208494e+001
3.916781e+003,2.209836e+001
3.918709e+003,2.218430e+001
3.920637e+003,2.212783e+001
3.922566e+003,2.197179e+001
3.924494e+003,2.209943e+001
3.926423e+003,2.216888e+001
3.928352e+003,2.210067e+001
3.930280e+003,2.194858e+001
3.932208e+003,2.196557e+001
3.934137e+003,2.216170e+001
3.936065e+003,2.214154e+001
3.937994e+003,2.214439e+001
3.939922e+003,2.205714e+001
3.941851e+003,2.200654e+001
3.943780e+003,2.210729e+001
3.945708e+003,2.204277e+001
3.947636e+003,2.201209e+001
3.949565e+003,2.208959e+001
3.951493e+003,2.213842e+001
3.953422e+003,2.209604e+001
3.955350e+003,2.199799e+001
3.957279e+003,2.199853e+001
3.959208e+003,2.200533e+001
3.961136e+003,2.193931e+001
3.963064e+003,2.197189e+001
3.964993e+003,2.190787e+001
3.966921e+003,2.191732e+001
3.968850e+003,2.201150e+001
3.970778e+003,2.200197e+001
3.972707e+003,2.195181e+001
3.974635e+003,2.197446e+001
3.976564e+003,2.192752e+001
3.978492e+003,2.186184e+001
3.980421e+003,2.193655e+001
3.982349e+003,2.192782e+001
3.984278e+003,2.190953e+001
3.986206e+003,2.181656e+001
3.988135e+003,2.168275e+001
3.990063e+003,2.182667e+001
3.991992e+003,2.197738e+001
3.993920e+003,2.188958e+001
3.995849e+003,2.181734e+001
3.997777e+003,2.185131e+001
3.999706e+003,2.180541e+001
