3.991992e+002,9.349232e+001
4.011277e+002,9.379356e+001
4.030562e+002,9.382335e+001
4.049847e+002,9.590770e+001
4.069132e+002,9.856860e+001
4.088417e+002,9.876330e+001
4.107702e+002,9.891140e+001
4.126987e+002,9.859045e+001
4.146272e+002,9.701246e+001
4.165557e+002,9.403305e+001
4.184842e+002,9.007417e+001
4.204127e+002,8.395988e+001
4.223412e+002,8.143300e+001
4.242697e+002,7.731485e+001
4.261982e+002,7.453217e+001
4.281267e+002,7.219740e+001
4.300552e+002,7.142334e+001
4.319837e+002,7.021407e+001
4.339122e+002,6.858760e+001
4.358407e+002,6.675458e+001
4.377692e+002,6.401505e+001
4.396977e+002,6.121278e+001
4.416262e+002,5.726534e+001
4.435547e+002,5.029678e+001
4.454832e+002,4.442859e+001
4.474117e+002,3.883734e+001
4.493401e+002,3.320323e+001
4.512686e+002,2.841418e+001
4.531971e+002,2.498533e+001
4.551256e+002,2.279228e+001
4.570541e+002,2.132205e+001
4.589826e+002,1.962706e+001
4.609111e+002,1.870685e+001
4.628396e+002,1.695910e+001
4.647681e+002,1.618943e+001
4.666966e+002,1.488547e+001
4.686251e+002,1.343302e+001
4.705536e+002,1.244036e+001
4.724821e+002,1.154203e+001
4.744106e+002,1.074069e+001
4.763391e+002,1.076260e+001
4.782676e+002,1.120928e+001
4.801961e+002,1.169850e+001
4.821246e+002,1.170481e+001
4.840531e+002,1.277886e+001
4.859816e+002,1.450972e+001
4.879101e+002,1.726762e+001
4.898386e+002,2.029795e+001
4.917671e+002,2.419458e+001
4.936956e+002,2.879577e+001
4.956241e+002,3.360784e+001
4.975526e+002,3.784909e+001
4.994811e+002,4.115465e+001
5.014096e+002,4.328767e+001
5.033381e+002,4.389813e+001
5.052666e+002,4.288483e+001
5.071951e+002,4.004998e+001
5.091236e+002,3.585989e+001
5.110521e+002,3.134987e+001
5.129806e+002,2.716291e+001
5.149091e+002,2.428122e+001
5.168376e+002,2.279422e+001
5.187661e+002,2.228713e+001
5.206946e+002,2.248422e+001
5.226231e+002,2.358621e+001
5.245516e+002,2.481879e+001
5.264801e+002,2.635040e+001
5.284086e+002,2.799650e+001
5.303371e+002,3.000190e+001
5.322656e+002,3.236054e+001
5.341941e+002,3.505949e+001
5.361226e+002,3.778172e+001
5.380511e+002,4.098275e+001
5.399796e+002,4.452168e+001
5.419081e+002,4.826701e+001
5.438365e+002,5.226909e+001
5.457651e+002,5.611216e+001
5.476936e+002,5.933803e+001
5.496221e+002,6.256030e+001
5.515506e+002,6.561697e+001
5.534791e+002,6.858311e+001
5.554076e+002,7.127602e+001
5.573361e+002,7.395605e+001
5.592646e+002,7.658208e+001
5.611931e+002,7.884641e+001
5.631216e+002,8.053819e+001
5.650500e+002,8.217238e+001
5.669786e+002,8.383857e+001
5.689070e+002,8.573915e+001
5.708356e+002,8.669424e+001
5.727640e+002,8.633685e+001
5.746926e+002,8.529735e+001
5.766210e+002,8.432850e+001
5.785496e+002,8.404405e+001
5.804780e+002,8.523421e+001
5.824066e+002,8.713924e+001
5.843350e+002,8.958371e+001
5.862635e+002,9.195260e+001
5.881920e+002,9.348122e+001
5.901205e+002,9.480116e+001
5.920490e+002,9.626389e+001
5.939775e+002,9.717901e+001
5.959060e+002,9.795918e+001
5.978345e+002,9.844136e+001
5.997631e+002,9.891030e+001
6.016915e+002,9.902766e+001
6.036201e+002,9.882013e+001
6.055485e+002,9.846672e+001
6.074771e+002,9.810915e+001
6.094055e+002,9.803616e+001
6.113340e+002,9.833689e+001
6.132625e+002,9.855701e+001
6.151910e+002,9.884856e+001
6.171195e+002,9.923718e+001
6.190480e+002,9.984052e+001
6.209765e+002,1.000000e+002
6.229050e+002,9.980988e+001
6.248335e+002,9.968256e+001
6.267620e+002,9.958727e+001
6.286905e+002,9.911684e+001
6.306190e+002,9.831574e+001
6.325475e+002,9.748753e+001
6.344760e+002,9.690327e+001
6.364045e+002,9.634903e+001
6.383330e+002,9.577498e+001
6.402615e+002,9.525458e+001
6.421900e+002,9.509854e+001
6.441185e+002,9.479190e+001
6.460470e+002,9.405064e+001
6.479755e+002,9.296416e+001
6.499040e+002,9.199585e+001
6.518325e+002,9.103117e+001
6.537610e+002,8.972260e+001
6.556895e+002,8.844628e+001
6.576180e+002,8.733395e+001
6.595465e+002,8.603751e+001
6.614750e+002,8.460473e+001
6.634035e+002,8.292027e+001
6.653320e+002,8.110841e+001
6.672605e+002,7.759448e+001
6.691890e+002,7.312014e+001
6.711175e+002,7.152924e+001
6.730460e+002,6.818422e+001
6.749745e+002,6.393777e+001
6.769030e+002,5.938475e+001
6.788315e+002,5.484829e+001
6.807599e+002,5.067616e+001
6.826885e+002,4.728586e+001
6.846169e+002,4.377792e+001
6.865455e+002,4.013261e+001
6.884739e+002,3.599088e+001
6.904025e+002,3.208665e+001
6.923309e+002,2.822475e+001
6.942595e+002,2.494544e+001
6.961880e+002,2.229679e+001
6.981165e+002,2.051411e+001
7.000450e+002,1.929826e+001
7.019734e+002,1.887158e+001
7.039020e+002,1.867944e+001
7.058304e+002,1.903737e+001
7.077590e+002,1.954886e+001
7.096874e+002,2.033865e+001
7.116160e+002,2.110661e+001
7.135444e+002,2.170935e+001
7.154730e+002,2.189370e+001
7.174014e+002,2.197171e+001
7.193300e+002,2.195563e+001
7.212584e+002,2.246325e+001
7.231870e+002,2.325421e+001
7.251154e+002,2.461403e+001
7.270439e+002,2.627098e+001
7.289724e+002,2.839025e+001
7.309009e+002,3.084119e+001
7.328294e+002,3.350314e+001
7.347579e+002,3.604940e+001
7.366864e+002,3.861790e+001
7.386149e+002,4.110251e+001
7.405434e+002,4.340689e+001
7.424719e+002,4.549350e+001
7.444004e+002,4.742561e+001
7.463289e+002,4.936054e+001
7.482574e+002,5.124805e+001
7.501859e+002,5.292719e+001
7.521144e+002,5.468621e+001
7.540429e+002,5.640800e+001
7.559714e+002,5.795577e+001
7.578999e+002,5.933524e+001
7.598284e+002,6.074565e+001
7.617569e+002,6.212877e+001
7.636854e+002,6.323241e+001
7.656139e+002,6.430647e+001
7.675424e+002,6.548427e+001
7.694709e+002,6.656799e+001
7.713994e+002,6.745438e+001
7.733279e+002,6.827411e+001
7.752564e+002,6.907442e+001
7.771849e+002,7.000972e+001
7.791134e+002,7.097882e+001
7.810419e+002,7.202023e+001
7.829704e+002,7.314154e+001
7.848989e+002,7.434253e+001
7.868274e+002,7.530441e+001
7.887559e+002,7.611770e+001
7.906844e+002,7.696657e+001
7.926129e+002,7.785046e+001
7.945414e+002,7.836802e+001
7.964699e+002,7.875173e+001
7.983984e+002,7.926142e+001
8.003269e+002,7.991039e+001
8.022554e+002,8.044473e+001
8.041839e+002,8.078157e+001
8.061124e+002,8.116658e+001
8.080409e+002,8.156341e+001
8.099694e+002,8.187016e+001
8.118979e+002,8.204240e+001
8.138264e+002,8.207650e+001
8.157549e+002,8.224771e+001
8.176833e+002,8.239500e+001
8.196119e+002,8.234721e+001
8.215403e+002,8.212908e+001
8.234689e+002,8.198370e+001
8.253973e+002,8.183855e+001
8.273259e+002,8.160416e+001
8.292543e+002,8.126577e+001
8.311829e+002,8.106237e+001
8.331113e+002,8.088330e+001
8.350399e+002,8.065956e+001
8.369683e+002,8.040071e+001
8.388969e+002,8.021426e+001
8.408253e+002,8.000621e+001
8.427538e+002,7.976509e+001
8.446824e+002,7.947030e+001
8.466108e+002,7.909195e+001
8.485394e+002,7.870829e+001
8.504678e+002,7.840516e+001
8.523964e+002,7.800201e+001
8.543248e+002,7.746928e+001
8.562534e+002,7.698431e+001
8.581818e+002,7.647807e+001
8.601104e+002,7.585381e+001
8.620388e+002,7.521555e+001
8.639673e+002,7.448865e+001
8.658958e+002,7.379048e+001
8.678243e+002,7.287344e+001
8.697528e+002,7.189775e+001
8.716813e+002,7.090277e+001
8.736098e+002,6.986330e+001
8.755383e+002,6.875278e+001
8.774668e+002,6.751571e+001
8.793953e+002,6.616151e+001
8.813238e+002,6.477148e+001
8.832523e+002,6.328363e+001
8.851808e+002,6.171537e+001
8.871093e+002,6.004357e+001
8.890378e+002,5.825939e+001
8.909663e+002,5.641432e+001
8.928948e+002,5.449726e+001
8.948233e+002,5.255273e+001
8.967518e+002,5.051791e+001
8.986803e+002,4.842263e+001
9.006088e+002,4.625544e+001
9.025373e+002,4.397412e+001
9.044658e+002,4.178787e+001
9.063943e+002,3.973488e+001
9.083228e+002,3.771375e+001
9.102513e+002,3.580523e+001
9.121798e+002,3.403809e+001
9.141083e+002,3.248985e+001
9.160368e+002,3.105511e+001
9.179653e+002,2.967833e+001
9.198938e+002,2.838853e+001
9.218223e+002,2.724294e+001
9.237508e+002,2.601300e+001
9.256793e+002,2.477452e+001
9.276078e+002,2.353825e+001
9.295363e+002,2.228703e+001
9.314648e+002,2.105829e+001
9.333932e+002,1.987469e+001
9.353218e+002,1.862804e+001
9.372502e+002,1.747741e+001
9.391788e+002,1.636057e+001
9.411072e+002,1.543248e+001
9.430358e+002,1.459601e+001
9.449643e+002,1.381578e+001
9.468928e+002,1.307090e+001
9.488213e+002,1.249825e+001
9.507498e+002,1.201540e+001
9.526783e+002,1.164985e+001
9.546068e+002,1.137122e+001
9.565353e+002,1.117011e+001
9.584637e+002,1.098778e+001
9.603923e+002,1.091614e+001
9.623207e+002,1.090653e+001
9.642493e+002,1.085094e+001
9.661777e+002,1.083199e+001
9.681063e+002,1.081732e+001
9.700347e+002,1.070570e+001
9.719633e+002,1.060056e+001
9.738917e+002,1.059715e+001
9.758203e+002,1.063650e+001
9.777487e+002,1.057641e+001
9.796772e+002,1.047782e+001
9.816057e+002,1.040782e+001
9.835342e+002,1.045198e+001
9.854627e+002,1.048277e+001
9.873912e+002,1.039937e+001
9.893197e+002,1.026258e+001
9.912482e+002,1.024366e+001
9.931768e+002,1.022579e+001
9.951052e+002,1.017538e+001
9.970338e+002,1.010057e+001
9.989622e+002,1.007359e+001
1.000891e+003,1.000000e+001
1.002819e+003,1.003826e+001
1.004748e+003,1.007308e+001
1.006676e+003,1.005350e+001
1.008605e+003,1.005371e+001
1.010533e+003,1.012094e+001
1.012462e+003,1.013918e+001
1.014390e+003,1.013222e+001
1.016319e+003,1.012211e+001
1.018247e+003,1.022153e+001
1.020176e+003,1.026512e+001
1.022104e+003,1.035427e+001
1.024033e+003,1.038196e+001
1.025961e+003,1.041212e+001
1.027890e+003,1.043724e+001
1.029818e+003,1.050570e+001
1.031747e+003,1.058497e+001
1.033675e+003,1.063537e+001
1.035604e+003,1.063883e+001
1.037532e+003,1.070690e+001
1.039461e+003,1.074395e+001
1.041389e+003,1.084625e+001
1.043318e+003,1.098449e+001
1.045246e+003,1.117405e+001
1.047175e+003,1.129328e+001
1.049103e+003,1.139077e+001
1.051032e+003,1.149730e+001
1.052960e+003,1.167994e+001
1.054889e+003,1.188477e+001
1.056817e+003,1.211660e+001
1.058746e+003,1.228415e+001
1.060674e+003,1.245257e+001
1.062603e+003,1.250629e+001
1.064531e+003,1.253516e+001
1.066460e+003,1.260274e+001
1.068388e+003,1.277428e+001
1.070317e+003,1.281815e+001
1.072245e+003,1.278828e+001
1.074174e+003,1.275223e+001
1.076102e+003,1.266913e+001
1.078031e+003,1.260035e+001
1.079959e+003,1.263265e+001
1.081888e+003,1.260734e+001
1.083816e+003,1.261709e+001
1.085745e+003,1.270997e+001
1.087673e+003,1.285045e+001
1.089602e+003,1.292677e+001
1.091530e+003,1.305690e+001
1.093459e+003,1.318099e+001
1.095387e+003,1.344683e+001
1.097316e+003,1.367311e+001
1.099244e+003,1.394531e+001
1.101173e+003,1.418004e+001
1.103101e+003,1.436688e+001
1.105030e+003,1.458969e+001
1.106958e+003,1.479906e+001
1.108887e+003,1.492954e+001
1.110815e+003,1.518788e+001
1.112744e+003,1.544445e+001
1.114672e+003,1.564740e+001
1.116601e+003,1.583281e+001
1.118529e+003,1.604313e+001
1.120458e+003,1.617750e+001
1.122386e+003,1.642455e+001
1.124315e+003,1.666633e+001
1.126243e+003,1.690052e+001
1.128172e+003,1.716124e+001
1.130100e+003,1.745121e+001
1.132029e+003,1.772062e+001
1.133957e+003,1.803669e+001
1.135886e+003,1.832999e+001
1.137814e+003,1.860962e+001
1.139743e+003,1.885678e+001
1.141671e+003,1.912973e+001
1.143600e+003,1.941364e+001
1.145528e+003,1.968038e+001
1.147457e+003,1.995876e+001
1.149385e+003,2.027529e+001
1.151314e+003,2.060968e+001
1.153242e+003,2.090306e+001
1.155171e+003,2.110209e+001
1.157099e+003,2.135814e+001
1.159028e+003,2.157705e+001
1.160956e+003,2.184189e+001
1.162885e+003,2.205803e+001
1.164813e+003,2.227872e+001
1.166742e+003,2.252114e+001
1.168670e+003,2.278471e+001
1.170599e+003,2.302725e+001
1.172527e+003,2.321247e+001
1.174456e+003,2.337226e+001
1.176384e+003,2.357053e+001
1.178313e+003,2.369112e+001
1.180241e+003,2.386013e+001
1.182170e+003,2.415263e+001
1.184098e+003,2.437354e+001
1.186027e+003,2.450862e+001
1.187955e+003,2.467765e+001
1.189884e+003,2.487203e+001
1.191812e+003,2.507808e+001
1.193741e+003,2.524770e+001
1.195669e+003,2.541264e+001
1.197598e+003,2.557600e+001
1.199526e+003,2.574348e+001
1.201455e+003,2.593102e+001
1.203383e+003,2.615321e+001
1.205312e+003,2.627903e+001
1.207240e+003,2.641628e+001
1.209169e+003,2.655162e+001
1.211097e+003,2.667333e+001
1.213026e+003,2.680007e+001
1.214954e+003,2.699372e+001
1.216883e+003,2.714058e+001
1.218811e+003,2.728049e+001
1.220740e+003,2.739196e+001
1.222668e+003,2.754539e+001
1.224597e+003,2.767119e+001
1.226525e+003,2.779252e+001
1.228453e+003,2.790716e+001
1.230382e+003,2.800822e+001
1.232311e+003,2.812890e+001
1.234239e+003,2.826738e+001
1.236167e+003,2.836686e+001
1.238096e+003,2.845445e+001
1.240025e+003,2.855556e+001
1.241953e+003,2.870800e+001
1.243882e+003,2.882927e+001
1.245810e+003,2.892769e+001
1.247739e+003,2.904791e+001
1.249667e+003,2.918077e+001
1.251596e+003,2.927971e+001
1.253524e+003,2.933470e+001
1.255453e+003,2.941699e+001
1.257381e+003,2.955324e+001
1.259310e+003,2.970774e+001
1.261238e+003,2.985167e+001
1.263167e+003,2.992543e+001
1.265095e+003,3.000098e+001
1.267024e+003,3.004717e+001
1.268952e+003,3.011038e+001
1.270880e+003,3.025021e+001
1.272809e+003,3.035024e+001
1.274738e+003,3.037858e+001
1.276666e+003,3.048928e+001
1.278594e+003,3.056232e+001
1.280523e+003,3.065886e+001
1.282452e+003,3.078004e+001
1.284380e+003,3.085171e+001
1.286308e+003,3.089949e+001
1.288237e+003,3.099892e+001
1.290166e+003,3.109308e+001
1.292094e+003,3.112169e+001
1.294022e+003,3.117920e+001
1.295951e+003,3.129794e+001
1.297880e+003,3.136179e+001
1.299808e+003,3.138761e+001
1.301736e+003,3.147006e+001
1.303665e+003,3.159599e+001
1.305594e+003,3.171428e+001
1.307522e+003,3.177835e+001
1.309450e+003,3.180618e+001
1.311379e+003,3.188436e+001
1.313307e+003,3.193669e+001
1.315236e+003,3.196330e+001
1.317164e+003,3.204898e+001
1.319093e+003,3.213982e+001
1.321021e+003,3.218644e+001
1.322950e+003,3.220646e+001
1.324878e+003,3.218804e+001
1.326807e+003,3.222456e+001
1.328735e+003,3.233186e+001
1.330664e+003,3.241541e+001
1.332592e+003,3.244118e+001
1.334521e+003,3.246064e+001
1.336449e+003,3.248522e+001
1.338378e+003,3.254988e+001
1.340307e+003,3.259130e+001
1.342235e+003,3.261231e+001
1.344163e+003,3.265189e+001
1.346092e+003,3.268040e+001
1.348021e+003,3.271429e+001
1.349949e+003,3.273319e+001
1.351877e+003,3.278728e+001
1.353806e+003,3.282607e+001
1.355734e+003,3.280400e+001
1.357663e+003,3.282374e+001
1.359591e+003,3.285086e+001
1.361520e+003,3.288293e+001
1.363448e+003,3.293889e+001
1.365377e+003,3.295416e+001
1.367305e+003,3.295290e+001
1.369234e+003,3.298516e+001
1.371162e+003,3.301694e+001
1.373091e+003,3.302051e+001
1.375019e+003,3.306572e+001
1.376948e+003,3.307230e+001
1.378876e+003,3.308302e+001
1.380805e+003,3.309737e+001
1.382733e+003,3.306661e+001
1.384662e+003,3.303641e+001
1.386590e+003,3.307143e+001
1.388519e+003,3.316274e+001
1.390447e+003,3.314027e+001
1.392376e+003,3.310915e+001
1.394304e+003,3.316713e+001
1.396233e+003,3.325572e+001
1.398161e+003,3.325977e+001
1.400090e+003,3.330232e+001
1.402018e+003,3.327042e+001
1.403947e+003,3.327868e+001
1.405875e+003,3.336430e+001
1.407804e+003,3.338023e+001
1.409732e+003,3.336584e+001
1.411661e+003,3.334530e+001
1.413589e+003,3.337586e+001
1.415518e+003,3.342284e+001
1.417446e+003,3.341898e+001
1.419375e+003,3.351978e+001
1.421303e+003,3.356121e+001
1.423232e+003,3.350701e+001
1.425160e+003,3.351604e+001
1.427089e+003,3.353952e+001
1.429017e+003,3.356865e+001
1.430946e+003,3.364707e+001
1.432874e+003,3.369496e+001
1.434803e+003,3.366747e+001
1.436731e+003,3.374096e+001
1.438660e+003,3.378028e+001
1.440588e+003,3.379572e+001
1.442517e+003,3.383833e+001
1.444445e+003,3.384146e+001
1.446374e+003,3.382620e+001
1.448302e+003,3.386914e+001
1.450231e+003,3.387663e+001
1.452159e+003,3.387258e+001
1.454088e+003,3.386103e+001
1.456016e+003,3.390168e+001
1.457945e+003,3.411446e+001
1.459873e+003,3.399198e+001
1.461802e+003,3.385742e+001
1.463730e+003,3.383254e+001
1.465659e+003,3.391372e+001
1.467587e+003,3.381922e+001
1.469516e+003,3.370316e+001
1.471444e+003,3.355840e+001
1.473373e+003,3.367202e+001
1.475301e+003,3.384813e+001
1.477230e+003,3.387104e+001
1.479158e+003,3.380502e+001
1.481087e+003,3.377124e+001
1.483015e+003,3.379484e+001
1.484944e+003,3.376689e+001
1.486872e+003,3.376038e+001
1.488801e+003,3.380064e+001
1.490729e+003,3.381717e+001
1.492658e+003,3.380532e+001
1.494586e+003,3.376883e+001
1.496515e+003,3.374088e+001
1.498443e+003,3.373182e+001
1.500372e+003,3.375945e+001
1.502300e+003,3.376352e+001
1.504229e+003,3.364632e+001
1.506157e+003,3.358813e+001
1.508086e+003,3.399535e+001
1.510014e+003,3.392237e+001
1.511943e+003,3.388064e+001
1.513871e+003,3.380484e+001
1.515800e+003,3.382100e+001
1.517728e+003,3.396727e+001
1.519657e+003,3.394562e+001
1.521585e+003,3.401948e+001
1.523514e+003,3.407169e+001
1.525442e+003,3.402781e+001
1.527371e+003,3.402734e+001
1.529299e+003,3.408300e+001
1.531228e+003,3.412089e+001
1.533156e+003,3.420760e+001
1.535085e+003,3.428832e+001
1.537013e+003,3.418549e+001
1.538942e+003,3.418736e+001
1.540870e+003,3.437373e+001
1.542799e+003,3.436202e+001
1.544727e+003,3.450710e+001
1.546656e+003,3.455609e+001
1.548584e+003,3.452163e+001
1.550513e+003,3.461127e+001
1.552441e+003,3.458399e+001
1.554370e+003,3.456455e+001
1.556298e+003,3.449819e+001
1.558227e+003,3.445038e+001
1.560155e+003,3.476850e+001
1.562084e+003,3.465631e+001
1.564012e+003,3.460442e+001
1.565941e+003,3.460826e+001
1.567869e+003,3.456548e+001
1.569798e+003,3.460460e+001
1.571726e+003,3.467524e+001
1.573655e+003,3.466699e+001
1.575583e+003,3.458603e+001
1.577512e+003,3.456551e+001
1.579440e+003,3.457687e+001
1.581369e+003,3.451610e+001
1.583297e+003,3.444253e+001
1.585226e+003,3.441324e+001
1.587154e+003,3.440876e+001
1.589083e+003,3.436202e+001
1.591011e+003,3.431068e+001
1.592940e+003,3.431649e+001
1.594868e+003,3.430036e+001
1.596797e+003,3.423425e+001
1.598725e+003,3.418242e+001
1.600654e+003,3.415394e+001
1.602582e+003,3.411272e+001
1.604511e+003,3.406274e+001
1.606439e+003,3.402601e+001
1.608368e+003,3.401463e+001
1.610296e+003,3.397017e+001
1.612225e+003,3.393306e+001
1.614153e+003,3.387746e+001
1.616082e+003,3.384113e+001
1.618010e+003,3.390756e+001
1.619939e+003,3.382313e+001
1.621867e+003,3.375871e+001
1.623796e+003,3.379083e+001
1.625724e+003,3.371828e+001
1.627653e+003,3.364340e+001
1.629581e+003,3.368018e+001
1.631510e+003,3.365234e+001
1.633438e+003,3.359277e+001
1.635367e+003,3.367725e+001
1.637295e+003,3.379272e+001
1.639224e+003,3.369157e+001
1.641152e+003,3.364295e+001
1.643081e+003,3.354982e+001
1.645009e+003,3.342860e+001
1.646938e+003,3.354104e+001
1.648866e+003,3.372932e+001
1.650795e+003,3.369440e+001
1.652723e+003,3.380162e+001
1.654652e+003,3.377054e+001
1.656580e+003,3.367801e+001
1.658509e+003,3.359126e+001
1.660437e+003,3.351448e+001
1.662366e+003,3.352715e+001
1.664294e+003,3.358559e+001
1.666223e+003,3.350976e+001
1.668151e+003,3.346373e+001
1.670080e+003,3.348119e+001
1.672008e+003,3.343508e+001
1.673937e+003,3.335789e+001
1.675865e+003,3.343813e+001
1.677794e+003,3.342059e+001
1.679722e+003,3.339276e+001
1.681651e+003,3.331842e+001
1.683579e+003,3.335431e+001
1.685508e+003,3.352397e+001
1.687436e+003,3.340418e+001
1.689365e+003,3.340141e+001
1.691293e+003,3.342956e+001
1.693222e+003,3.334186e+001
1.695150e+003,3.328232e+001
1.697079e+003,3.337037e+001
1.699007e+003,3.333733e+001
1.700936e+003,3.340044e+001
1.702864e+003,3.337456e+001
1.704793e+003,3.334801e+001
1.706721e+003,3.350195e+001
1.708650e+003,3.350224e+001
1.710578e+003,3.345335e+001
1.712507e+003,3.342575e+001
1.714435e+003,3.343920e+001
1.716364e+003,3.340248e+001
1.718292e+003,3.356517e+001
1.720221e+003,3.360475e+001
1.722149e+003,3.352625e+001
1.724078e+003,3.355929e+001
1.726006e+003,3.360654e+001
1.727935e+003,3.356079e+001
1.729863e+003,3.357863e+001
1.731792e+003,3.354169e+001
1.733720e+003,3.357737e+001
1.735649e+003,3.379547e+001
1.737577e+003,3.374133e+001
1.739506e+003,3.374659e+001
1.741434e+003,3.373374e+001
1.743363e+003,3.377592e+001
1.745291e+003,3.379927e+001
1.747220e+003,3.376109e+001
1.749148e+003,3.382282e+001
1.751077e+003,3.386662e+001
1.753005e+003,3.383784e+001
1.754934e+003,3.385066e+001
1.756862e+003,3.395194e+001
1.758791e+003,3.393118e+001
1.760719e+003,3.392736e+001
1.762648e+003,3.397488e+001
1.764576e+003,3.393339e+001
1.766505e+003,3.390877e+001
1.768433e+003,3.392967e+001
1.770362e+003,3.383790e+001
1.772290e+003,3.386491e+001
1.774219e+003,3.396404e+001
1.776147e+003,3.396145e+001
1.778076e+003,3.393334e+001
1.780004e+003,3.393255e+001
1.781933e+003,3.394861e+001
1.783861e+003,3.392486e+001
1.785790e+003,3.398629e+001
1.787718e+003,3.401857e+001
1.789647e+003,3.396886e+001
1.791575e+003,3.395975e+001
1.793504e+003,3.404952e+001
1.795432e+003,3.404189e+001
1.797361e+003,3.400111e+001
1.799289e+003,3.400188e+001
1.801218e+003,3.407607e+001
1.803146e+003,3.408434e+001
1.805075e+003,3.406182e+001
1.807003e+003,3.407190e+001
1.808932e+003,3.408637e+001
1.810860e+003,3.409778e+001
1.812789e+003,3.411226e+001
1.814717e+003,3.408797e+001
1.816646e+003,3.406484e+001
1.818574e+003,3.411099e+001
1.820503e+003,3.413430e+001
1.822431e+003,3.408206e+001
1.824360e+003,3.407549e+001
1.826288e+003,3.413950e+001
1.828217e+003,3.408913e+001
1.830145e+003,3.412283e+001
1.832074e+003,3.418797e+001
1.834002e+003,3.418138e+001
1.835931e+003,3.415160e+001
1.837859e+003,3.413971e+001
1.839788e+003,3.417374e+001
1.841716e+003,3.417339e+001
1.843645e+003,3.420605e+001
1.845573e+003,3.422316e+001
1.847502e+003,3.418099e+001
1.849430e+003,3.415423e+001
1.851359e+003,3.414260e+001
1.853287e+003,3.415533e+001
1.855216e+003,3.415396e+001
1.857144e+003,3.412364e+001
1.859073e+003,3.415657e+001
1.861001e+003,3.415163e+001
1.862930e+003,3.409231e+001
1.864858e+003,3.406092e+001
1.866786e+003,3.401139e+001
1.868715e+003,3.402632e+001
1.870644e+003,3.411368e+001
1.872572e+003,3.411012e+001
1.874500e+003,3.409458e+001
1.876429e+003,3.407278e+001
1.878358e+003,3.406152e+001
1.880286e+003,3.410206e+001
1.882215e+003,3.409453e+001
1.884143e+003,3.405267e+001
1.886072e+003,3.406901e+001
1.888000e+003,3.406822e+001
1.889929e+003,3.407221e+001
1.891857e+003,3.405395e+001
1.893786e+003,3.403731e+001
1.895714e+003,3.401922e+001
1.897643e+003,3.397352e+001
1.899571e+003,3.400019e+001
1.901500e+003,3.402852e+001
1.903428e+003,3.402322e+001
1.905357e+003,3.402467e+001
1.907285e+003,3.393929e+001
1.909214e+003,3.387222e+001
1.911142e+003,3.391337e+001
1.913071e+003,3.388602e+001
1.914999e+003,3.381906e+001
1.916927e+003,3.378062e+001
1.918856e+003,3.381037e+001
1.920785e+003,3.379171e+001
1.922713e+003,3.376700e+001
1.924641e+003,3.373356e+001
1.926570e+003,3.371384e+001
1.928499e+003,3.370918e+001
1.930427e+003,3.369276e+001
1.932355e+003,3.362016e+001
1.934284e+003,3.358809e+001
1.936213e+003,3.359849e+001
1.938141e+003,3.360662e+001
1.940069e+003,3.359134e+001
1.941998e+003,3.355952e+001
1.943927e+003,3.350179e+001
1.945855e+003,3.348309e+001
1.947783e+003,3.351912e+001
1.949712e+003,3.350510e+001
1.951641e+003,3.346615e+001
1.953569e+003,3.342033e+001
1.955497e+003,3.342752e+001
1.957426e+003,3.343135e+001
1.959354e+003,3.342756e+001
1.961283e+003,3.344362e+001
1.963211e+003,3.345058e+001
1.965140e+003,3.337269e+001
1.967068e+003,3.328120e+001
1.968997e+003,3.330064e+001
1.970925e+003,3.330637e+001
1.972854e+003,3.331362e+001
1.974782e+003,3.330412e+001
1.976711e+003,3.330537e+001
1.978639e+003,3.330401e+001
1.980568e+003,3.331939e+001
1.982496e+003,3.334711e+001
1.984425e+003,3.333137e+001
1.986354e+003,3.330988e+001
1.988282e+003,3.330637e+001
1.990210e+003,3.327990e+001
1.992139e+003,3.329179e+001
1.994068e+003,3.330374e+001
1.995996e+003,3.330111e+001
1.997924e+003,3.331484e+001
1.999853e+003,3.330105e+001
2.001781e+003,3.331405e+001
2.003710e+003,3.330262e+001
2.005638e+003,3.326340e+001
2.007567e+003,3.328486e+001
2.009495e+003,3.328890e+001
2.011424e+003,3.325093e+001
2.013352e+003,3.324579e+001
2.015281e+003,3.324918e+001
2.017209e+003,3.325193e+001
2.019138e+003,3.327388e+001
2.021066e+003,3.326672e+001
2.022995e+003,3.323431e+001
2.024923e+003,3.320154e+001
2.026852e+003,3.316418e+001
2.028780e+003,3.317714e+001
2.030709e+003,3.316454e+001
2.032637e+003,3.309294e+001
2.034566e+003,3.303298e+001
2.036494e+003,3.304758e+001
2.038423e+003,3.305363e+001
2.040351e+003,3.310967e+001
2.042280e+003,3.309629e+001
2.044208e+003,3.305152e+001
2.046137e+003,3.307546e+001
2.048065e+003,3.308337e+001
2.049994e+003,3.306036e+001
2.051922e+003,3.303712e+001
2.053851e+003,3.297870e+001
2.055779e+003,3.293425e+001
2.057708e+003,3.294794e+001
2.059636e+003,3.296555e+001
2.061565e+003,3.294252e+001
2.063493e+003,3.294457e+001
2.065422e+003,3.300144e+001
2.067350e+003,3.301893e+001
2.069279e+003,3.298745e+001
2.071207e+003,3.291502e+001
2.073136e+003,3.289881e+001
2.075064e+003,3.295277e+001
2.076993e+003,3.296220e+001
2.078921e+003,3.296561e+001
2.080850e+003,3.299181e+001
2.082778e+003,3.298192e+001
2.084707e+003,3.296571e+001
2.086635e+003,3.299325e+001
2.088564e+003,3.296060e+001
2.090492e+003,3.292297e+001
2.092421e+003,3.293237e+001
2.094349e+003,3.292394e+001
2.096278e+003,3.293863e+001
2.098206e+003,3.294717e+001
2.100135e+003,3.294838e+001
2.102063e+003,3.294460e+001
2.103992e+003,3.290862e+001
2.105920e+003,3.290699e+001
2.107849e+003,3.292062e+001
2.109777e+003,3.288792e+001
2.111706e+003,3.288004e+001
2.113634e+003,3.288365e+001
2.115563e+003,3.288059e+001
2.117491e+003,3.287222e+001
2.119420e+003,3.290056e+001
2.121348e+003,3.290324e+001
2.123277e+003,3.289658e+001
2.125205e+003,3.288721e+001
2.127134e+003,3.285340e+001
2.129062e+003,3.286499e+001
2.130991e+003,3.290805e+001
2.132919e+003,3.294847e+001
2.134848e+003,3.291864e+001
2.136776e+003,3.285706e+001
2.138705e+003,3.286289e+001
2.140633e+003,3.285656e+001
2.142562e+003,3.286376e+001
2.144490e+003,3.286911e+001
2.146419e+003,3.280210e+001
2.148347e+003,3.279482e+001
2.150276e+003,3.280106e+001
2.152204e+003,3.278399e+001
2.154133e+003,3.277470e+001
2.156061e+003,3.274622e+001
2.157990e+003,3.275513e+001
2.159918e+003,3.276282e+001
2.161847e+003,3.273581e+001
2.163775e+003,3.274481e+001
2.165704e+003,3.272641e+001
2.167632e+003,3.269106e+001
2.169561e+003,3.268541e+001
2.171489e+003,3.269629e+001
2.173418e+003,3.267614e+001
2.175346e+003,3.267557e+001
2.177275e+003,3.270351e+001
2.179203e+003,3.270644e+001
2.181132e+003,3.268595e+001
2.183060e+003,3.268926e+001
2.184989e+003,3.268237e+001
2.186917e+003,3.265733e+001
2.188846e+003,3.267109e+001
2.190774e+003,3.266856e+001
2.192703e+003,3.266521e+001
2.194631e+003,3.268135e+001
2.196560e+003,3.268266e+001
2.198488e+003,3.266066e+001
2.200417e+003,3.264272e+001
2.202345e+003,3.261120e+001
2.204274e+003,3.255967e+001
2.206202e+003,3.256013e+001
2.208131e+003,3.257273e+001
2.210059e+003,3.258767e+001
2.211988e+003,3.254894e+001
2.213916e+003,3.255682e+001
2.215845e+003,3.254254e+001
2.217773e+003,3.248588e+001
2.219702e+003,3.250056e+001
2.221630e+003,3.248108e+001
2.223559e+003,3.242918e+001
2.225487e+003,3.242610e+001
2.227416e+003,3.244603e+001
2.229344e+003,3.245845e+001
2.231273e+003,3.245365e+001
2.233201e+003,3.246191e+001
2.235130e+003,3.244755e+001
2.237058e+003,3.241870e+001
2.238987e+003,3.240368e+001
2.240915e+003,3.241100e+001
2.242844e+003,3.241585e+001
2.244772e+003,3.236701e+001
2.246701e+003,3.236281e+001
2.248629e+003,3.237043e+001
2.250558e+003,3.235352e+001
2.252486e+003,3.234259e+001
2.254415e+003,3.229739e+001
2.256343e+003,3.225785e+001
2.258272e+003,3.221196e+001
2.260200e+003,3.220386e+001
2.262129e+003,3.220551e+001
2.264057e+003,3.219106e+001
2.265986e+003,3.221261e+001
2.267914e+003,3.220332e+001
2.269843e+003,3.212539e+001
2.271771e+003,3.209087e+001
2.273700e+003,3.210606e+001
2.275628e+003,3.206897e+001
2.277557e+003,3.206097e+001
2.279485e+003,3.208823e+001
2.281414e+003,3.208997e+001
2.283342e+003,3.210421e+001
2.285271e+003,3.209565e+001
2.287199e+003,3.201879e+001
2.289128e+003,3.192597e+001
2.291056e+003,3.187766e+001
2.292985e+003,3.183928e+001
2.294913e+003,3.178989e+001
2.296842e+003,3.176368e+001
2.298770e+003,3.172679e+001
2.300699e+003,3.164855e+001
2.302627e+003,3.155248e+001
2.304556e+003,3.142196e+001
2.306484e+003,3.133121e+001
2.308413e+003,3.122701e+001
2.310341e+003,3.110751e+001
2.312270e+003,3.089783e+001
2.314198e+003,3.082091e+001
2.316127e+003,3.076706e+001
2.318055e+003,3.056083e+001
2.319984e+003,3.038740e+001
2.321912e+003,3.022674e+001
2.323841e+003,3.010543e+001
2.325769e+003,3.001096e+001
2.327698e+003,2.992920e+001
2.329626e+003,2.987713e+001
2.331555e+003,2.980672e+001
2.333483e+003,2.978217e+001
2.335412e+003,2.966902e+001
2.337340e+003,2.950169e+001
2.339269e+003,2.942955e+001
2.341197e+003,2.941380e+001
2.343126e+003,2.950438e+001
2.345054e+003,2.977892e+001
2.346983e+003,3.022688e+001
2.348911e+003,3.022639e+001
2.350840e+003,2.986128e+001
2.352768e+003,2.947380e+001
2.354697e+003,2.915742e+001
2.356625e+003,2.871604e+001
2.358554e+003,2.852129e+001
2.360482e+003,2.859352e+001
2.362411e+003,2.872640e+001
2.364339e+003,2.884014e+001
2.366268e+003,2.897305e+001
2.368196e+003,2.924453e+001
2.370125e+003,2.959134e+001
2.372053e+003,2.987524e+001
2.373982e+003,3.018245e+001
2.375910e+003,3.053380e+001
2.377839e+003,3.079104e+001
2.379767e+003,3.097207e+001
2.381696e+003,3.118720e+001
2.383624e+003,3.139565e+001
2.385553e+003,3.154659e+001
2.387481e+003,3.158422e+001
2.389410e+003,3.158282e+001
2.391338e+003,3.154617e+001
2.393267e+003,3.152108e+001
2.395195e+003,3.149611e+001
2.397124e+003,3.148930e+001
2.399052e+003,3.146008e+001
2.400981e+003,3.143939e+001
2.402909e+003,3.146823e+001
2.404838e+003,3.144452e+001
2.406766e+003,3.141127e+001
2.408695e+003,3.140004e+001
2.410623e+003,3.139006e+001
2.412552e+003,3.137213e+001
2.414480e+003,3.137640e+001
2.416409e+003,3.139621e+001
2.418337e+003,3.142642e+001
2.420266e+003,3.139289e+001
2.422194e+003,3.131892e+001
2.424123e+003,3.134939e+001
2.426051e+003,3.138394e+001
2.427980e+003,3.137045e+001
2.429908e+003,3.132231e+001
2.431837e+003,3.127027e+001
2.433765e+003,3.130000e+001
2.435694e+003,3.134735e+001
2.437622e+003,3.131510e+001
2.439551e+003,3.127150e+001
2.441479e+003,3.124487e+001
2.443408e+003,3.120248e+001
2.445336e+003,3.118646e+001
2.447265e+003,3.117864e+001
2.449193e+003,3.115671e+001
2.451122e+003,3.113012e+001
2.453050e+003,3.106535e+001
2.454979e+003,3.107935e+001
2.456907e+003,3.113980e+001
2.458836e+003,3.107548e+001
2.460764e+003,3.101777e+001
2.462693e+003,3.104179e+001
2.464621e+003,3.104887e+001
2.466550e+003,3.106369e+001
2.468478e+003,3.106415e+001
2.470406e+003,3.105300e+001
2.472335e+003,3.108126e+001
2.474264e+003,3.106551e+001
2.476192e+003,3.102419e+001
2.478121e+003,3.100205e+001
2.480049e+003,3.098060e+001
2.481978e+003,3.096977e+001
2.483906e+003,3.102068e+001
2.485834e+003,3.102019e+001
2.487763e+003,3.098240e+001
2.489692e+003,3.101033e+001
2.491620e+003,3.101554e+001
2.493549e+003,3.093336e+001
2.495477e+003,3.087821e+001
2.497406e+003,3.086403e+001
2.499334e+003,3.083233e+001
2.501262e+003,3.080588e+001
2.503191e+003,3.083436e+001
2.505120e+003,3.081850e+001
2.507048e+003,3.078828e+001
2.508977e+003,3.080042e+001
2.510905e+003,3.080421e+001
2.512833e+003,3.080536e+001
2.514762e+003,3.081870e+001
2.516690e+003,3.078035e+001
2.518619e+003,3.074173e+001
2.520548e+003,3.074753e+001
2.522476e+003,3.074167e+001
2.524405e+003,3.072224e+001
2.526333e+003,3.069969e+001
2.528261e+003,3.071191e+001
2.530190e+003,3.072937e+001
2.532119e+003,3.066392e+001
2.534047e+003,3.064575e+001
2.535976e+003,3.070374e+001
2.537904e+003,3.068237e+001
2.539833e+003,3.060891e+001
2.541761e+003,3.059645e+001
2.543689e+003,3.060525e+001
2.545618e+003,3.059316e+001
2.547547e+003,3.060961e+001
2.549475e+003,3.063350e+001
2.551404e+003,3.058941e+001
2.553332e+003,3.054381e+001
2.555260e+003,3.052815e+001
2.557189e+003,3.050579e+001
2.559117e+003,3.049691e+001
2.561046e+003,3.047293e+001
2.562975e+003,3.046690e+001
2.564903e+003,3.043192e+001
2.566832e+003,3.037233e+001
2.568760e+003,3.041488e+001
2.570688e+003,3.045705e+001
2.572617e+003,3.041876e+001
2.574545e+003,3.043720e+001
2.576474e+003,3.046805e+001
2.578403e+003,3.048524e+001
2.580331e+003,3.047842e+001
2.582260e+003,3.043842e+001
2.584188e+003,3.044826e+001
2.586116e+003,3.037150e+001
2.588045e+003,3.032295e+001
2.589973e+003,3.034119e+001
2.591902e+003,3.032417e+001
2.593831e+003,3.031276e+001
2.595759e+003,3.031610e+001
2.597688e+003,3.031926e+001
2.599616e+003,3.029162e+001
2.601544e+003,3.027680e+001
2.603473e+003,3.023064e+001
2.605401e+003,3.022330e+001
2.607330e+003,3.024500e+001
2.609259e+003,3.024842e+001
2.611187e+003,3.024889e+001
2.613115e+003,3.020210e+001
2.615044e+003,3.015113e+001
2.616972e+003,3.014462e+001
2.618901e+003,3.014254e+001
2.620830e+003,3.011941e+001
2.622758e+003,3.010679e+001
2.624687e+003,3.010789e+001
2.626615e+003,3.012095e+001
2.628543e+003,3.013125e+001
2.630472e+003,3.014076e+001
2.632400e+003,3.009780e+001
2.634329e+003,3.007149e+001
2.636258e+003,3.003794e+001
2.638186e+003,3.000651e+001
2.640115e+003,3.002156e+001
2.642043e+003,3.000537e+001
2.643971e+003,2.997575e+001
2.645900e+003,3.001865e+001
2.647828e+003,3.000869e+001
2.649757e+003,2.995542e+001
2.651686e+003,2.995650e+001
2.653614e+003,2.992590e+001
2.655542e+003,2.991165e+001
2.657471e+003,2.995472e+001
2.659399e+003,2.997470e+001
2.661328e+003,2.993830e+001
2.663256e+003,2.991145e+001
2.665185e+003,2.987144e+001
2.667114e+003,2.986167e+001
2.669042e+003,2.984786e+001
2.670970e+003,2.980778e+001
2.672899e+003,2.981265e+001
2.674827e+003,2.983876e+001
2.676756e+003,2.981485e+001
2.678684e+003,2.980975e+001
2.680613e+003,2.980692e+001
2.682542e+003,2.978829e+001
2.684470e+003,2.977838e+001
2.686398e+003,2.980395e+001
2.688327e+003,2.983264e+001
2.690255e+003,2.977489e+001
2.692184e+003,2.969384e+001
2.694112e+003,2.970986e+001
2.696041e+003,2.973919e+001
2.697969e+003,2.974533e+001
2.699898e+003,2.967920e+001
2.701826e+003,2.958286e+001
2.703755e+003,2.959309e+001
2.705683e+003,2.961640e+001
2.707612e+003,2.964921e+001
2.709540e+003,2.965850e+001
2.711469e+003,2.962711e+001
2.713397e+003,2.963910e+001
2.715326e+003,2.961359e+001
2.717254e+003,2.959781e+001
2.719183e+003,2.959141e+001
2.721111e+003,2.950582e+001
2.723040e+003,2.946698e+001
2.724969e+003,2.950268e+001
2.726897e+003,2.954288e+001
2.728825e+003,2.955172e+001
2.730754e+003,2.953639e+001
2.732682e+003,2.953609e+001
2.734611e+003,2.950142e+001
2.736539e+003,2.951274e+001
2.738468e+003,2.953692e+001
2.740396e+003,2.954350e+001
2.742325e+003,2.953637e+001
2.744253e+003,2.948916e+001
2.746182e+003,2.947303e+001
2.748110e+003,2.944913e+001
2.750039e+003,2.938997e+001
2.751967e+003,2.933400e+001
2.753896e+003,2.926962e+001
2.755824e+003,2.929625e+001
2.757753e+003,2.934837e+001
2.759681e+003,2.935135e+001
2.761610e+003,2.934410e+001
2.763538e+003,2.929672e+001
2.765467e+003,2.923466e+001
2.767395e+003,2.920953e+001
2.769324e+003,2.927557e+001
2.771252e+003,2.927419e+001
2.773181e+003,2.924744e+001
2.775109e+003,2.926516e+001
2.777038e+003,2.924231e+001
2.778966e+003,2.923706e+001
2.780895e+003,2.921684e+001
2.782823e+003,2.917256e+001
2.784752e+003,2.915647e+001
2.786680e+003,2.914145e+001
2.788609e+003,2.912465e+001
2.790537e+003,2.912741e+001
2.792466e+003,2.911907e+001
2.794394e+003,2.912767e+001
2.796323e+003,2.911334e+001
2.798251e+003,2.908050e+001
2.800180e+003,2.907041e+001
2.802108e+003,2.904505e+001
2.804037e+003,2.896528e+001
2.805965e+003,2.895567e+001
2.807894e+003,2.896838e+001
2.809822e+003,2.898799e+001
2.811751e+003,2.901269e+001
2.813679e+003,2.899415e+001
2.815608e+003,2.899606e+001
2.817536e+003,2.897765e+001
2.819465e+003,2.894028e+001
2.821393e+003,2.891682e+001
2.823322e+003,2.890150e+001
2.825250e+003,2.887765e+001
2.827179e+003,2.889200e+001
2.829107e+003,2.890269e+001
2.831036e+003,2.888818e+001
2.832964e+003,2.887164e+001
2.834893e+003,2.884680e+001
2.836821e+003,2.884064e+001
2.838750e+003,2.885338e+001
2.840678e+003,2.880183e+001
2.842607e+003,2.876657e+001
2.844535e+003,2.871624e+001
2.846464e+003,2.868257e+001
2.848392e+003,2.863790e+001
2.850321e+003,2.860075e+001
2.852249e+003,2.857377e+001
2.854178e+003,2.855726e+001
2.856106e+003,2.862555e+001
2.858035e+003,2.863899e+001
2.859963e+003,2.863198e+001
2.861892e+003,2.860285e+001
2.863820e+003,2.859949e+001
2.865749e+003,2.863515e+001
2.867677e+003,2.862725e+001
2.869606e+003,2.859770e+001
2.871534e+003,2.860142e+001
2.873463e+003,2.857798e+001
2.875391e+003,2.854362e+001
2.877320e+003,2.851357e+001
2.879248e+003,2.850847e+001
2.881177e+003,2.853783e+001
2.883105e+003,2.856296e+001
2.885034e+003,2.854739e+001
2.886962e+003,2.849321e+001
2.888891e+003,2.846874e+001
2.890819e+003,2.843177e+001
2.892748e+003,2.840523e+001
2.894676e+003,2.841600e+001
2.896605e+003,2.841841e+001
2.898533e+003,2.839402e+001
2.900462e+003,2.835410e+001
2.902390e+003,2.836712e+001
2.904319e+003,2.838034e+001
2.906247e+003,2.832741e+001
2.908176e+003,2.823877e+001
2.910104e+003,2.821985e+001
2.912033e+003,2.817527e+001
2.913961e+003,2.812518e+001
2.915890e+003,2.812434e+001
2.917818e+003,2.813146e+001
2.919747e+003,2.814786e+001
2.921675e+003,2.809979e+001
2.923604e+003,2.804450e+001
2.925532e+003,2.806872e+001
2.927461e+003,2.812606e+001
2.929389e+003,2.811842e+001
2.931318e+003,2.806457e+001
2.933246e+003,2.803811e+001
2.935175e+003,2.801368e+001
2.937103e+003,2.804645e+001
2.939032e+003,2.815739e+001
2.940960e+003,2.819511e+001
2.942889e+003,2.810993e+001
2.944817e+003,2.801011e+001
2.946746e+003,2.802197e+001
2.948674e+003,2.801265e+001
2.950603e+003,2.799512e+001
2.952531e+003,2.800084e+001
2.954460e+003,2.800896e+001
2.956388e+003,2.801492e+001
2.958317e+003,2.800487e+001
2.960245e+003,2.803023e+001
2.962174e+003,2.806322e+001
2.964102e+003,2.804549e+001
2.966031e+003,2.799908e+001
2.967959e+003,2.796394e+001
2.969888e+003,2.799147e+001
2.971816e+003,2.799835e+001
2.973745e+003,2.795071e+001
2.975673e+003,2.794069e+001
2.977602e+003,2.797855e+001
2.979530e+003,2.797950e+001
2.981459e+003,2.796890e+001
2.983387e+003,2.802006e+001
2.985316e+003,2.799954e+001
2.987244e+003,2.790821e+001
2.989173e+003,2.787303e+001
2.991101e+003,2.785200e+001
2.993030e+003,2.787175e+001
2.994958e+003,2.790759e+001
2.996887e+003,2.793391e+001
2.998815e+003,2.792590e+001
3.000744e+003,2.785564e+001
3.002672e+003,2.780332e+001
3.004601e+003,2.785531e+001
3.006529e+003,2.783725e+001
3.008458e+003,2.779653e+001
3.010386e+003,2.781488e+001
3.012315e+003,2.774085e+001
3.014243e+003,2.766860e+001
3.016172e+003,2.763636e+001
3.018100e+003,2.764119e+001
3.020029e+003,2.767941e+001
3.021957e+003,2.770567e+001
3.023886e+003,2.768722e+001
3.025814e+003,2.769154e+001
3.027743e+003,2.767756e+001
3.029671e+003,2.769696e+001
3.031600e+003,2.766573e+001
3.033528e+003,2.759739e+001
3.035457e+003,2.760724e+001
3.037385e+003,2.765368e+001
3.039314e+003,2.763281e+001
3.041242e+003,2.761644e+001
3.043171e+003,2.762858e+001
3.045099e+003,2.761100e+001
3.047028e+003,2.756707e+001
3.048956e+003,2.753234e+001
3.050885e+003,2.753827e+001
3.052813e+003,2.747228e+001
3.054742e+003,2.739354e+001
3.056670e+003,2.738144e+001
3.058599e+003,2.741502e+001
3.060527e+003,2.750093e+001
3.062456e+003,2.752581e+001
3.064384e+003,2.746234e+001
3.066313e+003,2.745538e+001
3.068241e+003,2.750210e+001
3.070170e+003,2.750854e+001
3.072098e+003,2.746410e+001
3.074027e+003,2.742332e+001
3.075955e+003,2.744443e+001
3.077884e+003,2.737464e+001
3.079812e+003,2.736717e+001
3.081741e+003,2.738767e+001
3.083669e+003,2.728825e+001
3.085598e+003,2.724967e+001
3.087526e+003,2.728268e+001
3.089455e+003,2.733401e+001
3.091383e+003,2.730930e+001
3.093312e+003,2.725564e+001
3.095240e+003,2.726040e+001
3.097169e+003,2.721935e+001
3.099097e+003,2.717952e+001
3.101026e+003,2.721449e+001
3.102954e+003,2.724726e+001
3.104883e+003,2.718352e+001
3.106811e+003,2.714344e+001
3.108740e+003,2.711974e+001
3.110668e+003,2.713506e+001
3.112597e+003,2.715584e+001
3.114525e+003,2.706622e+001
3.116454e+003,2.703415e+001
3.118382e+003,2.711850e+001
3.120311e+003,2.714619e+001
3.122239e+003,2.710247e+001
3.124167e+003,2.706694e+001
3.126096e+003,2.711272e+001
3.128025e+003,2.709466e+001
3.129953e+003,2.701534e+001
3.131882e+003,2.703955e+001
3.133810e+003,2.704857e+001
3.135739e+003,2.704235e+001
3.137667e+003,2.698411e+001
3.139595e+003,2.692655e+001
3.141524e+003,2.691171e+001
3.143453e+003,2.694420e+001
3.145381e+003,2.700336e+001
3.147310e+003,2.697099e+001
3.149238e+003,2.685434e+001
3.151167e+003,2.680133e+001
3.153095e+003,2.680436e+001
3.155023e+003,2.680193e+001
3.156952e+003,2.679002e+001
3.158881e+003,2.678892e+001
3.160809e+003,2.678591e+001
3.162738e+003,2.678610e+001
3.164666e+003,2.678275e+001
3.166594e+003,2.676471e+001
3.168523e+003,2.673851e+001
3.170452e+003,2.676819e+001
3.172380e+003,2.674129e+001
3.174309e+003,2.667217e+001
3.176237e+003,2.665666e+001
3.178166e+003,2.665620e+001
3.180094e+003,2.661638e+001
3.182022e+003,2.656631e+001
3.183951e+003,2.657401e+001
3.185880e+003,2.664003e+001
3.187808e+003,2.663046e+001
3.189737e+003,2.658074e+001
3.191665e+003,2.648542e+001
3.193594e+003,2.649415e+001
3.195522e+003,2.654150e+001
3.197450e+003,2.651409e+001
3.199379e+003,2.648214e+001
3.201308e+003,2.644358e+001
3.203236e+003,2.642016e+001
3.205165e+003,2.642285e+001
3.207093e+003,2.636043e+001
3.209021e+003,2.635751e+001
3.210950e+003,2.637058e+001
3.212878e+003,2.631361e+001
3.214807e+003,2.629818e+001
3.216736e+003,2.630373e+001
3.218664e+003,2.633777e+001
3.220593e+003,2.638688e+001
3.222521e+003,2.636420e+001
3.224449e+003,2.625276e+001
3.226378e+003,2.629292e+001
3.228306e+003,2.629631e+001
3.230235e+003,2.615062e+001
3.232164e+003,2.610701e+001
3.234092e+003,2.618961e+001
3.236021e+003,2.618103e+001
3.237949e+003,2.608201e+001
3.239877e+003,2.612882e+001
3.241806e+003,2.617826e+001
3.243734e+003,2.608866e+001
3.245663e+003,2.608156e+001
3.247592e+003,2.609984e+001
3.249520e+003,2.607951e+001
3.251448e+003,2.603014e+001
3.253377e+003,2.598032e+001
3.255305e+003,2.595892e+001
3.257234e+003,2.594916e+001
3.259162e+003,2.596282e+001
3.261091e+003,2.600130e+001
3.263020e+003,2.597086e+001
3.264948e+003,2.595693e+001
3.266876e+003,2.593001e+001
3.268805e+003,2.588424e+001
3.270733e+003,2.585195e+001
3.272662e+003,2.583371e+001
3.274591e+003,2.581737e+001
3.276519e+003,2.580436e+001
3.278448e+003,2.574940e+001
3.280376e+003,2.571313e+001
3.282304e+003,2.580072e+001
3.284233e+003,2.581077e+001
3.286161e+003,2.574657e+001
3.288090e+003,2.567503e+001
3.290019e+003,2.566949e+001
3.291947e+003,2.567586e+001
3.293875e+003,2.569722e+001
3.295804e+003,2.574680e+001
3.297732e+003,2.572275e+001
3.299661e+003,2.568422e+001
3.301589e+003,2.562954e+001
3.303518e+003,2.560182e+001
3.305447e+003,2.556720e+001
3.307375e+003,2.558316e+001
3.309303e+003,2.561121e+001
3.311232e+003,2.559450e+001
3.313160e+003,2.561053e+001
3.315089e+003,2.554109e+001
3.317017e+003,2.548259e+001
3.318946e+003,2.549555e+001
3.320875e+003,2.545829e+001
3.322803e+003,2.533850e+001
3.324731e+003,2.522375e+001
3.326660e+003,2.527497e+001
3.328588e+003,2.536132e+001
3.330517e+003,2.538291e+001
3.332445e+003,2.533419e+001
3.334374e+003,2.523890e+001
3.336302e+003,2.523583e+001
3.338231e+003,2.527096e+001
3.340159e+003,2.518143e+001
3.342088e+003,2.510807e+001
3.344016e+003,2.501220e+001
3.345945e+003,2.495328e+001
3.347873e+003,2.499718e+001
3.349802e+003,2.501704e+001
3.351730e+003,2.491802e+001
3.353659e+003,2.491774e+001
3.355587e+003,2.490715e+001
3.357516e+003,2.487801e+001
3.359444e+003,2.492019e+001
3.361373e+003,2.488067e+001
3.363302e+003,2.487622e+001
3.365230e+003,2.484291e+001
3.367158e+003,2.478684e+001
3.369087e+003,2.476395e+001
3.371015e+003,2.481356e+001
3.372944e+003,2.485983e+001
3.374872e+003,2.480153e+001
3.376801e+003,2.468753e+001
3.378729e+003,2.463368e+001
3.380658e+003,2.460684e+001
3.382586e+003,2.457889e+001
3.384515e+003,2.457966e+001
3.386443e+003,2.457524e+001
3.388372e+003,2.447356e+001
3.390300e+003,2.441301e+001
3.392229e+003,2.440139e+001
3.394157e+003,2.434115e+001
3.396086e+003,2.436341e+001
3.398014e+003,2.442326e+001
3.399943e+003,2.441183e+001
3.401871e+003,2.442944e+001
3.403800e+003,2.439100e+001
3.405728e+003,2.433137e+001
3.407657e+003,2.433028e+001
3.409585e+003,2.430042e+001
3.411514e+003,2.429821e+001
3.413442e+003,2.430664e+001
3.415371e+003,2.419730e+001
3.417299e+003,2.419863e+001
3.419228e+003,2.424279e+001
3.421156e+003,2.421930e+001
3.423085e+003,2.418145e+001
3.425013e+003,2.416652e+001
3.426942e+003,2.408465e+001
3.428870e+003,2.403941e+001
3.430799e+003,2.400882e+001
3.432727e+003,2.402668e+001
3.434656e+003,2.404171e+001
3.436584e+003,2.405189e+001
3.438513e+003,2.405142e+001
3.440441e+003,2.408971e+001
3.442370e+003,2.404645e+001
3.444298e+003,2.392171e+001
3.446227e+003,2.380874e+001
3.448155e+003,2.386664e+001
3.450084e+003,2.397377e+001
3.452012e+003,2.399242e+001
3.453941e+003,2.388035e+001
3.455869e+003,2.387651e+001
3.457798e+003,2.395318e+001
3.459726e+003,2.387201e+001
3.461655e+003,2.381018e+001
3.463583e+003,2.390354e+001
3.465512e+003,2.397663e+001
3.467440e+003,2.401788e+001
3.469369e+003,2.406949e+001
3.471297e+003,2.408049e+001
3.473226e+003,2.400021e+001
3.475154e+003,2.392017e+001
3.477083e+003,2.396686e+001
3.479011e+003,2.394421e+001
3.480940e+003,2.394986e+001
3.482868e+003,2.399258e+001
3.484797e+003,2.397311e+001
3.486725e+003,2.396165e+001
3.488654e+003,2.386706e+001
3.490582e+003,2.377466e+001
3.492511e+003,2.389114e+001
3.494439e+003,2.396986e+001
3.496368e+003,2.398444e+001
3.498296e+003,2.399461e+001
3.500225e+003,2.391926e+001
3.502153e+003,2.385204e+001
3.504082e+003,2.396120e+001
3.506010e+003,2.398806e+001
3.507939e+003,2.392926e+001
3.509867e+003,2.405949e+001
3.511796e+003,2.415403e+001
3.513724e+003,2.409228e+001
3.515653e+003,2.402213e+001
3.517581e+003,2.396320e+001
3.519510e+003,2.404346e+001
3.521438e+003,2.408124e+001
3.523367e+003,2.408549e+001
3.525295e+003,2.409868e+001
3.527224e+003,2.408217e+001
3.529152e+003,2.417467e+001
3.531081e+003,2.413260e+001
3.533009e+003,2.399958e+001
3.534938e+003,2.395833e+001
3.536866e+003,2.397810e+001
3.538795e+003,2.408113e+001
3.540723e+003,2.409869e+001
3.542652e+003,2.400758e+001
3.544580e+003,2.410004e+001
3.546509e+003,2.425313e+001
3.548437e+003,2.415430e+001
3.550366e+003,2.410617e+001
3.552294e+003,2.414286e+001
3.554223e+003,2.412703e+001
3.556151e+003,2.417321e+001
3.558080e+003,2.420186e+001
3.560008e+003,2.402337e+001
3.561937e+003,2.396531e+001
3.563865e+003,2.400650e+001
3.565794e+003,2.413173e+001
3.567722e+003,2.429389e+001
3.569651e+003,2.416793e+001
3.571579e+003,2.409755e+001
3.573508e+003,2.424145e+001
3.575436e+003,2.428346e+001
3.577365e+003,2.425708e+001
3.579293e+003,2.429816e+001
3.581222e+003,2.424638e+001
3.583150e+003,2.421221e+001
3.585079e+003,2.428324e+001
3.587007e+003,2.443710e+001
3.588936e+003,2.433074e+001
3.590864e+003,2.419654e+001
3.592793e+003,2.421856e+001
3.594721e+003,2.434902e+001
3.596650e+003,2.436230e+001
3.598578e+003,2.424864e+001
3.600507e+003,2.425072e+001
3.602435e+003,2.425600e+001
3.604364e+003,2.423026e+001
3.606292e+003,2.420824e+001
3.608221e+003,2.433216e+001
3.610149e+003,2.445100e+001
3.612078e+003,2.435384e+001
3.614006e+003,2.438996e+001
3.615935e+003,2.439436e+001
3.617863e+003,2.433070e+001
3.619792e+003,2.442048e+001
3.621720e+003,2.441447e+001
3.623649e+003,2.444085e+001
3.625577e+003,2.452778e+001
3.627506e+003,2.454033e+001
3.629434e+003,2.449635e+001
3.631363e+003,2.450336e+001
3.633291e+003,2.446915e+001
3.635220e+003,2.447242e+001
3.637148e+003,2.437181e+001
3.639077e+003,2.436064e+001
3.641005e+003,2.449654e+001
3.642934e+003,2.464778e+001
3.644862e+003,2.465169e+001
3.646791e+003,2.444640e+001
3.648719e+003,2.423222e+001
3.650648e+003,2.432463e+001
3.652576e+003,2.453330e+001
3.654505e+003,2.466278e+001
3.656433e+003,2.476550e+001
3.658362e+003,2.478527e+001
3.660290e+003,2.467959e+001
3.662219e+003,2.456055e+001
3.664147e+003,2.457717e+001
3.666076e+003,2.443778e+001
3.668004e+003,2.429125e+001
3.669933e+003,2.465722e+001
3.671861e+003,2.468617e+001
3.673790e+003,2.444530e+001
3.675718e+003,2.472951e+001
3.677647e+003,2.475041e+001
3.679575e+003,2.457144e+001
3.681504e+003,2.455190e+001
3.683432e+003,2.453802e+001
3.685361e+003,2.438902e+001
3.687289e+003,2.425145e+001
3.689218e+003,2.444905e+001
3.691146e+003,2.436559e+001
3.693075e+003,2.438652e+001
3.695003e+003,2.454333e+001
3.696932e+003,2.461481e+001
3.698860e+003,2.442569e+001
3.700789e+003,2.433035e+001
3.702717e+003,2.435006e+001
3.704646e+003,2.438450e+001
3.706574e+003,2.436784e+001
3.708503e+003,2.432198e+001
3.710431e+003,2.435485e+001
3.712360e+003,2.443441e+001
3.714288e+003,2.464244e+001
3.716217e+003,2.470773e+001
3.718145e+003,2.449258e+001
3.720074e+003,2.443740e+001
3.722002e+003,2.449560e+001
3.723931e+003,2.441452e+001
3.725859e+003,2.433118e+001
3.727788e+003,2.442953e+001
3.729716e+003,2.426813e+001
3.731645e+003,2.403165e+001
3.733573e+003,2.381625e+001
3.735502e+003,2.403297e+001
3.737430e+003,2.437786e+001
3.739359e+003,2.450573e+001
3.741287e+003,2.452769e+001
3.743216e+003,2.443166e+001
3.745144e+003,2.461410e+001
3.747073e+003,2.454552e+001
3.749001e+003,2.444593e+001
3.750930e+003,2.424183e+001
3.752858e+003,2.422069e+001
3.754787e+003,2.427189e+001
3.756715e+003,2.433144e+001
3.758644e+003,2.467752e+001
3.760572e+003,2.470619e+001
3.762500e+003,2.457644e+001
3.764429e+003,2.448791e+001
3.766358e+003,2.441769e+001
3.768286e+003,2.429773e+001
3.770215e+003,2.442721e+001
3.772143e+003,2.440415e+001
3.774072e+003,2.424590e+001
3.776000e+003,2.430461e+001
3.777928e+003,2.438342e+001
3.779857e+003,2.430959e+001
3.781786e+003,2.419152e+001
3.783714e+003,2.412446e+001
3.785643e+003,2.425203e+001
3.787571e+003,2.429994e+001
3.789500e+003,2.434511e+001
3.791428e+003,2.431267e+001
3.793356e+003,2.420539e+001
3.795285e+003,2.418918e+001
3.797214e+003,2.421383e+001
3.799142e+003,2.415004e+001
3.801071e+003,2.407129e+001
3.802999e+003,2.416898e+001
3.804927e+003,2.411679e+001
3.806856e+003,2.415015e+001
3.808785e+003,2.418169e+001
3.810713e+003,2.409169e+001
3.812642e+003,2.418981e+001
3.814570e+003,2.421330e+001
3.816499e+003,2.416192e+001
3.818427e+003,2.427810e+001
3.820355e+003,2.452483e+001
3.822284e+003,2.441898e+001
3.824213e+003,2.427056e+001
3.826141e+003,2.413143e+001
3.828070e+003,2.399942e+001
3.829998e+003,2.390432e+001
3.831927e+003,2.399248e+001
3.833855e+003,2.396017e+001
3.835783e+003,2.385300e+001
3.837712e+003,2.390366e+001
3.839641e+003,2.409270e+001
3.841569e+003,2.405444e+001
3.843498e+003,2.403928e+001
3.845426e+003,2.410867e+001
3.847354e+003,2.397266e+001
3.849283e+003,2.392113e+001
3.851211e+003,2.391457e+001
3.853140e+003,2.414326e+001
3.855069e+003,2.424121e+001
3.856997e+003,2.404329e+001
3.858926e+003,2.396314e+001
3.860854e+003,2.388736e+001
3.862782e+003,2.395136e+001
3.864711e+003,2.413287e+001
3.866639e+003,2.399977e+001
3.868568e+003,2.391780e+001
3.870497e+003,2.394625e+001
3.872425e+003,2.380943e+001
3.874354e+003,2.396323e+001
3.876282e+003,2.416249e+001
3.878210e+003,2.423293e+001
3.880139e+003,2.415344e+001
3.882067e+003,2.406688e+001
3.883996e+003,2.399784e+001
3.885925e+003,2.400384e+001
3.887853e+003,2.401595e+001
3.889781e+003,2.406442e+001
3.891710e+003,2.413164e+001
3.893638e+003,2.403370e+001
3.895567e+003,2.393082e+001
3.897495e+003,2.392816e+001
3.899424e+003,2.383564e+001
3.901353e+003,2.380922e+001
3.903281e+003,2.389857e+001
3.905209e+003,2.401755e+001
3.907138e+003,2.393426e+001
3.909066e+003,2.390990e+001
3.910995e+003,2.386626e+001
3.912924e+003,2.382770e+001
3.914852e+003,2.381410e+001
3.916781e+003,2.379793e+001
3.918709e+003,2.378889e+001
3.920637e+003,2.385521e+001
3.922566e+003,2.370872e+001
3.924494e+003,2.365907e+001
3.926423e+003,2.388985e+001
3.928352e+003,2.385002e+001
3.930280e+003,2.374110e+001
3.932208e+003,2.368365e+001
3.934137e+003,2.373675e+001
3.936065e+003,2.381196e+001
3.937994e+003,2.379413e+001
3.939922e+003,2.373370e+001
3.941851e+003,2.369365e+001
3.943780e+003,2.381988e+001
3.945708e+003,2.371981e+001
3.947636e+003,2.363292e+001
3.949565e+003,2.365118e+001
3.951493e+003,2.364138e+001
3.953422e+003,2.364471e+001
3.955350e+003,2.369483e+001
3.957279e+003,2.367031e+001
3.959208e+003,2.368433e+001
3.961136e+003,2.366970e+001
3.963064e+003,2.362717e+001
3.964993e+003,2.357683e+001
3.966921e+003,2.352087e+001
3.968850e+003,2.351762e+001
3.970778e+003,2.367431e+001
3.972707e+003,2.368985e+001
3.974635e+003,2.359079e+001
3.976564e+003,2.360133e+001
3.978492e+003,2.367451e+001
3.980421e+003,2.345567e+001
3.982349e+003,2.329500e+001
3.984278e+003,2.338683e+001
3.986206e+003,2.351394e+001
3.988135e+003,2.359317e+001
3.990063e+003,2.358184e+001
3.991992e+003,2.350768e+001
3.993920e+003,2.347545e+001
3.995849e+003,2.352920e+001
3.997777e+003,2.361235e+001
3.999706e+003,2.360449e+001
