3.991992e+002,7.630541e+001
4.011277e+002,6.947261e+001
4.030562e+002,6.868687e+001
4.049847e+002,6.692470e+001
4.069132e+002,6.221264e+001
4.088417e+002,5.830345e+001
4.107702e+002,5.652287e+001
4.126987e+002,5.296467e+001
4.146272e+002,4.988297e+001
4.165557e+002,4.708763e+001
4.184842e+002,4.153614e+001
4.204127e+002,3.647201e+001
4.223412e+002,3.523562e+001
4.242697e+002,3.027365e+001
4.261982e+002,2.647649e+001
4.281267e+002,2.543715e+001
4.300552e+002,2.360352e+001
4.319837e+002,2.062656e+001
4.339122e+002,1.998489e+001
4.358407e+002,2.039652e+001
4.377692e+002,1.920492e+001
4.396977e+002,1.798843e+001
4.416262e+002,1.830972e+001
4.435547e+002,1.842921e+001
4.454832e+002,1.801111e+001
4.474117e+002,1.786275e+001
4.493401e+002,1.836762e+001
4.512686e+002,1.813266e+001
4.531971e+002,1.751730e+001
4.551256e+002,1.681974e+001
4.570541e+002,1.681348e+001
4.589826e+002,1.575339e+001
4.609111e+002,1.434464e+001
4.628396e+002,1.334535e+001
4.647681e+002,1.284330e+001
4.666966e+002,1.268336e+001
4.686251e+002,1.297858e+001
4.705536e+002,1.258651e+001
4.724821e+002,1.221010e+001
4.744106e+002,1.252715e+001
4.763391e+002,1.279684e+001
4.782676e+002,1.269085e+001
4.801961e+002,1.397528e+001
4.821246e+002,1.506967e+001
4.840531e+002,1.515316e+001
4.859816e+002,1.533721e+001
4.879101e+002,1.606343e+001
4.898386e+002,1.569764e+001
4.917671e+002,1.502847e+001
4.936956e+002,1.505183e+001
4.956241e+002,1.543652e+001
4.975526e+002,1.564307e+001
4.994811e+002,1.617323e+001
5.014096e+002,1.688212e+001
5.033381e+002,1.785014e+001
5.052666e+002,1.874735e+001
5.071951e+002,2.017814e+001
5.091236e+002,2.209153e+001
5.110521e+002,2.414606e+001
5.129806e+002,2.568890e+001
5.149091e+002,2.721442e+001
5.168376e+002,2.894642e+001
5.187661e+002,3.127721e+001
5.206946e+002,3.365296e+001
5.226231e+002,3.585082e+001
5.245516e+002,3.796270e+001
5.264801e+002,4.120764e+001
5.284086e+002,4.416781e+001
5.303371e+002,4.650236e+001
5.322656e+002,4.948217e+001
5.341941e+002,5.277512e+001
5.361226e+002,5.526283e+001
5.380511e+002,5.782215e+001
5.399796e+002,6.113827e+001
5.419081e+002,6.388784e+001
5.438365e+002,6.598465e+001
5.457651e+002,6.866755e+001
5.476936e+002,7.124394e+001
5.496221e+002,7.334115e+001
5.515506e+002,7.529578e+001
5.534791e+002,7.731475e+001
5.554076e+002,7.934460e+001
5.573361e+002,8.144902e+001
5.592646e+002,8.329974e+001
5.611931e+002,8.497600e+001
5.631216e+002,8.688692e+001
5.650500e+002,8.858027e+001
5.669786e+002,9.002911e+001
5.689070e+002,9.139436e+001
5.708356e+002,9.270908e+001
5.727640e+002,9.378836e+001
5.746926e+002,9.459906e+001
5.766210e+002,9.526000e+001
5.785496e+002,9.621571e+001
5.804780e+002,9.732751e+001
5.824066e+002,9.804181e+001
5.843350e+002,9.871329e+001
5.862635e+002,9.955618e+001
5.881920e+002,9.977051e+001
5.901205e+002,9.964651e+001
5.920490e+002,9.991714e+001
5.939775e+002,1.000000e+002
5.959060e+002,9.951402e+001
5.978345e+002,9.920478e+001
5.997631e+002,9.904966e+001
6.016915e+002,9.879956e+001
6.036201e+002,9.833128e+001
6.055485e+002,9.793098e+001
6.074771e+002,9.744442e+001
6.094055e+002,9.717245e+001
6.113340e+002,9.680729e+001
6.132625e+002,9.615492e+001
6.151910e+002,9.540642e+001
6.171195e+002,9.478089e+001
6.190480e+002,9.388281e+001
6.209765e+002,9.262546e+001
6.229050e+002,9.131269e+001
6.248335e+002,9.015651e+001
6.267620e+002,8.872294e+001
6.286905e+002,8.699266e+001
6.306190e+002,8.509253e+001
6.325475e+002,8.317993e+001
6.344760e+002,8.057059e+001
6.364045e+002,7.755147e+001
6.383330e+002,7.432681e+001
6.402615e+002,7.057213e+001
6.421900e+002,6.584298e+001
6.441185e+002,6.076943e+001
6.460470e+002,5.558374e+001
6.479755e+002,5.048130e+001
6.499040e+002,4.630717e+001
6.518325e+002,4.398795e+001
6.537610e+002,4.342862e+001
6.556895e+002,4.419813e+001
6.576180e+002,4.549442e+001
6.595465e+002,4.629038e+001
6.614750e+002,4.619259e+001
6.634035e+002,4.519287e+001
6.653320e+002,4.329385e+001
6.672605e+002,4.001166e+001
6.691890e+002,3.436463e+001
6.711175e+002,3.091450e+001
6.730460e+002,2.655671e+001
6.749745e+002,2.253524e+001
6.769030e+002,1.979914e+001
6.788315e+002,1.821273e+001
6.807599e+002,1.729224e+001
6.826885e+002,1.710429e+001
6.846169e+002,1.712673e+001
6.865455e+002,1.699955e+001
6.884739e+002,1.656157e+001
6.904025e+002,1.636429e+001
6.923309e+002,1.631126e+001
6.942595e+002,1.632107e+001
6.961880e+002,1.658225e+001
6.981165e+002,1.737668e+001
7.000450e+002,1.823974e+001
7.019734e+002,1.938092e+001
7.039020e+002,2.083915e+001
7.058304e+002,2.253848e+001
7.077590e+002,2.432051e+001
7.096874e+002,2.611129e+001
7.116160e+002,2.751568e+001
7.135444e+002,2.843729e+001
7.154730e+002,2.899581e+001
7.174014e+002,2.922863e+001
7.193300e+002,2.946074e+001
7.212584e+002,3.042049e+001
7.231870e+002,3.232236e+001
7.251154e+002,3.470938e+001
7.270439e+002,3.742798e+001
7.289724e+002,4.049843e+001
7.309009e+002,4.358855e+001
7.328294e+002,4.638768e+001
7.347579e+002,4.910071e+001
7.366864e+002,5.181231e+001
7.386149e+002,5.431565e+001
7.405434e+002,5.656049e+001
7.424719e+002,5.861245e+001
7.444004e+002,6.051256e+001
7.463289e+002,6.231975e+001
7.482574e+002,6.400122e+001
7.501859e+002,6.563834e+001
7.521144e+002,6.708538e+001
7.540429e+002,6.841336e+001
7.559714e+002,6.957809e+001
7.578999e+002,7.069013e+001
7.598284e+002,7.170248e+001
7.617569e+002,7.266323e+001
7.636854e+002,7.341568e+001
7.656139e+002,7.408833e+001
7.675424e+002,7.483279e+001
7.694709e+002,7.564716e+001
7.713994e+002,7.636299e+001
7.733279e+002,7.720117e+001
7.752564e+002,7.829359e+001
7.771849e+002,7.931622e+001
7.791134e+002,8.012009e+001
7.810419e+002,8.111988e+001
7.829704e+002,8.222306e+001
7.848989e+002,8.316674e+001
7.868274e+002,8.396852e+001
7.887559e+002,8.478452e+001
7.906844e+002,8.544135e+001
7.926129e+002,8.600823e+001
7.945414e+002,8.652504e+001
7.964699e+002,8.717565e+001
7.983984e+002,8.768127e+001
8.003269e+002,8.815075e+001
8.022554e+002,8.862715e+001
8.041839e+002,8.917494e+001
8.061124e+002,8.966534e+001
8.080409e+002,9.012855e+001
8.099694e+002,9.048329e+001
8.118979e+002,9.085159e+001
8.138264e+002,9.124109e+001
8.157549e+002,9.167789e+001
8.176833e+002,9.186122e+001
8.196119e+002,9.199478e+001
8.215403e+002,9.220852e+001
8.234689e+002,9.231314e+001
8.253973e+002,9.208150e+001
8.273259e+002,9.199832e+001
8.292543e+002,9.190533e+001
8.311829e+002,9.161786e+001
8.331113e+002,9.121230e+001
8.350399e+002,9.092019e+001
8.369683e+002,9.044240e+001
8.388969e+002,8.987245e+001
8.408253e+002,8.933804e+001
8.427538e+002,8.873013e+001
8.446824e+002,8.789621e+001
8.466108e+002,8.711651e+001
8.485394e+002,8.631561e+001
8.504678e+002,8.550299e+001
8.523964e+002,8.463258e+001
8.543248e+002,8.377464e+001
8.562534e+002,8.280231e+001
8.581818e+002,8.182861e+001
8.601104e+002,8.074147e+001
8.620388e+002,7.958650e+001
8.639673e+002,7.827628e+001
8.658958e+002,7.704077e+001
8.678243e+002,7.570367e+001
8.697528e+002,7.420039e+001
8.716813e+002,7.256654e+001
8.736098e+002,7.101959e+001
8.755383e+002,6.933652e+001
8.774668e+002,6.743607e+001
8.793953e+002,6.553377e+001
8.813238e+002,6.368832e+001
8.832523e+002,6.155479e+001
8.851808e+002,5.933977e+001
8.871093e+002,5.714870e+001
8.890378e+002,5.490448e+001
8.909663e+002,5.243280e+001
8.928948e+002,4.999395e+001
8.948233e+002,4.752168e+001
8.967518e+002,4.502259e+001
8.986803e+002,4.258714e+001
9.006088e+002,4.026686e+001
9.025373e+002,3.791313e+001
9.044658e+002,3.570773e+001
9.063943e+002,3.368583e+001
9.083228e+002,3.173483e+001
9.102513e+002,2.988839e+001
9.121798e+002,2.820024e+001
9.141083e+002,2.648512e+001
9.160368e+002,2.468751e+001
9.179653e+002,2.306992e+001
9.198938e+002,2.165268e+001
9.218223e+002,2.025414e+001
9.237508e+002,1.897103e+001
9.256793e+002,1.785389e+001
9.276078e+002,1.679606e+001
9.295363e+002,1.567168e+001
9.314648e+002,1.461291e+001
9.333932e+002,1.376818e+001
9.353218e+002,1.297652e+001
9.372502e+002,1.218676e+001
9.391788e+002,1.164384e+001
9.411072e+002,1.138852e+001
9.430358e+002,1.114300e+001
9.449643e+002,1.103274e+001
9.468928e+002,1.104263e+001
9.488213e+002,1.101096e+001
9.507498e+002,1.093380e+001
9.526783e+002,1.094920e+001
9.546068e+002,1.084898e+001
9.565353e+002,1.074776e+001
9.584637e+002,1.076168e+001
9.603923e+002,1.076201e+001
9.623207e+002,1.069628e+001
9.642493e+002,1.072169e+001
9.661777e+002,1.072945e+001
9.681063e+002,1.060685e+001
9.700347e+002,1.050170e+001
9.719633e+002,1.051446e+001
9.738917e+002,1.043554e+001
9.758203e+002,1.034620e+001
9.777487e+002,1.030584e+001
9.796772e+002,1.034049e+001
9.816057e+002,1.029109e+001
9.835342e+002,1.022299e+001
9.854627e+002,1.020226e+001
9.873912e+002,1.026638e+001
9.893197e+002,1.021691e+001
9.912482e+002,1.016842e+001
9.931768e+002,1.017995e+001
9.951052e+002,1.016753e+001
9.970338e+002,1.008715e+001
9.989622e+002,1.007859e+001
1.000891e+003,1.008196e+001
1.002819e+003,1.009574e+001
1.004748e+003,1.012108e+001
1.006676e+003,1.011789e+001
1.008605e+003,1.001365e+001
1.010533e+003,1.004916e+001
1.012462e+003,1.006444e+001
1.014390e+003,1.001074e+001
1.016319e+003,1.000000e+001
1.018247e+003,1.011847e+001
1.020176e+003,1.009747e+001
1.022104e+003,1.007845e+001
1.024033e+003,1.016018e+001
1.025961e+003,1.025109e+001
1.027890e+003,1.022640e+001
1.029818e+003,1.025664e+001
1.031747e+003,1.033979e+001
1.033675e+003,1.043708e+001
1.035604e+003,1.047445e+001
1.037532e+003,1.053837e+001
1.039461e+003,1.060876e+001
1.041389e+003,1.070312e+001
1.043318e+003,1.076235e+001
1.045246e+003,1.090496e+001
1.047175e+003,1.103367e+001
1.049103e+003,1.118780e+001
1.051032e+003,1.133922e+001
1.052960e+003,1.153681e+001
1.054889e+003,1.168487e+001
1.056817e+003,1.187403e+001
1.058746e+003,1.205681e+001
1.060674e+003,1.217532e+001
1.062603e+003,1.232176e+001
1.064531e+003,1.251633e+001
1.066460e+003,1.260408e+001
1.068388e+003,1.268940e+001
1.070317e+003,1.285520e+001
1.072245e+003,1.296643e+001
1.074174e+003,1.291693e+001
1.076102e+003,1.297476e+001
1.078031e+003,1.304225e+001
1.079959e+003,1.300078e+001
1.081888e+003,1.291559e+001
1.083816e+003,1.291300e+001
1.085745e+003,1.283935e+001
1.087673e+003,1.277032e+001
1.089602e+003,1.275425e+001
1.091530e+003,1.282610e+001
1.093459e+003,1.294782e+001
1.095387e+003,1.308880e+001
1.097316e+003,1.324637e+001
1.099244e+003,1.344823e+001
1.101173e+003,1.364825e+001
1.103101e+003,1.385794e+001
1.105030e+003,1.406850e+001
1.106958e+003,1.430665e+001
1.108887e+003,1.457915e+001
1.110815e+003,1.486980e+001
1.112744e+003,1.507504e+001
1.114672e+003,1.530864e+001
1.116601e+003,1.558695e+001
1.118529e+003,1.581078e+001
1.120458e+003,1.597129e+001
1.122386e+003,1.623035e+001
1.124315e+003,1.647939e+001
1.126243e+003,1.662802e+001
1.128172e+003,1.683170e+001
1.130100e+003,1.711678e+001
1.132029e+003,1.733298e+001
1.133957e+003,1.748960e+001
1.135886e+003,1.768602e+001
1.137814e+003,1.791054e+001
1.139743e+003,1.807893e+001
1.141671e+003,1.823865e+001
1.143600e+003,1.839475e+001
1.145528e+003,1.857324e+001
1.147457e+003,1.873325e+001
1.149385e+003,1.888624e+001
1.151314e+003,1.902064e+001
1.153242e+003,1.922283e+001
1.155171e+003,1.946032e+001
1.157099e+003,1.969394e+001
1.159028e+003,1.991039e+001
1.160956e+003,2.018143e+001
1.162885e+003,2.047229e+001
1.164813e+003,2.071956e+001
1.166742e+003,2.097086e+001
1.168670e+003,2.129425e+001
1.170599e+003,2.157410e+001
1.172527e+003,2.178058e+001
1.174456e+003,2.203948e+001
1.176384e+003,2.237267e+001
1.178313e+003,2.261060e+001
1.180241e+003,2.282362e+001
1.182170e+003,2.308359e+001
1.184098e+003,2.336523e+001
1.186027e+003,2.357451e+001
1.187955e+003,2.378457e+001
1.189884e+003,2.401633e+001
1.191812e+003,2.426338e+001
1.193741e+003,2.447911e+001
1.195669e+003,2.468704e+001
1.197598e+003,2.488998e+001
1.199526e+003,2.512796e+001
1.201455e+003,2.532739e+001
1.203383e+003,2.548349e+001
1.205312e+003,2.566778e+001
1.207240e+003,2.589668e+001
1.209169e+003,2.609475e+001
1.211097e+003,2.627172e+001
1.213026e+003,2.645779e+001
1.214954e+003,2.665863e+001
1.216883e+003,2.678935e+001
1.218811e+003,2.692870e+001
1.220740e+003,2.710309e+001
1.222668e+003,2.728677e+001
1.224597e+003,2.739261e+001
1.226525e+003,2.752116e+001
1.228453e+003,2.770596e+001
1.230382e+003,2.787781e+001
1.232311e+003,2.798471e+001
1.234239e+003,2.812531e+001
1.236167e+003,2.830358e+001
1.238096e+003,2.844225e+001
1.240025e+003,2.855008e+001
1.241953e+003,2.867614e+001
1.243882e+003,2.878895e+001
1.245810e+003,2.892308e+001
1.247739e+003,2.905095e+001
1.249667e+003,2.916545e+001
1.251596e+003,2.925200e+001
1.253524e+003,2.941636e+001
1.255453e+003,2.953719e+001
1.257381e+003,2.962380e+001
1.259310e+003,2.975655e+001
1.261238e+003,2.989562e+001
1.263167e+003,2.997597e+001
1.265095e+003,3.006985e+001
1.267024e+003,3.018811e+001
1.268952e+003,3.028912e+001
1.270880e+003,3.037149e+001
1.272809e+003,3.048443e+001
1.274738e+003,3.062724e+001
1.276666e+003,3.071966e+001
1.278594e+003,3.076626e+001
1.280523e+003,3.086548e+001
1.282452e+003,3.097625e+001
1.284380e+003,3.106842e+001
1.286308e+003,3.114062e+001
1.288237e+003,3.124010e+001
1.290166e+003,3.134644e+001
1.292094e+003,3.143236e+001
1.294022e+003,3.150874e+001
1.295951e+003,3.158087e+001
1.297880e+003,3.167773e+001
1.299808e+003,3.175459e+001
1.301736e+003,3.181123e+001
1.303665e+003,3.187250e+001
1.305594e+003,3.197682e+001
1.307522e+003,3.205313e+001
1.309450e+003,3.208406e+001
1.311379e+003,3.213169e+001
1.313307e+003,3.224014e+001
1.315236e+003,3.228122e+001
1.317164e+003,3.230673e+001
1.319093e+003,3.242676e+001
1.321021e+003,3.252458e+001
1.322950e+003,3.255362e+001
1.324878e+003,3.261609e+001
1.326807e+003,3.268966e+001
1.328735e+003,3.275481e+001
1.330664e+003,3.280072e+001
1.332592e+003,3.286554e+001
1.334521e+003,3.289941e+001
1.336449e+003,3.289723e+001
1.338378e+003,3.289502e+001
1.340307e+003,3.309330e+001
1.342235e+003,3.319615e+001
1.344163e+003,3.322527e+001
1.346092e+003,3.325967e+001
1.348021e+003,3.329799e+001
1.349949e+003,3.337534e+001
1.351877e+003,3.344485e+001
1.353806e+003,3.347707e+001
1.355734e+003,3.353398e+001
1.357663e+003,3.358569e+001
1.359591e+003,3.357734e+001
1.361520e+003,3.355117e+001
1.363448e+003,3.376800e+001
1.365377e+003,3.385124e+001
1.367305e+003,3.380826e+001
1.369234e+003,3.384173e+001
1.371162e+003,3.386349e+001
1.373091e+003,3.386114e+001
1.375019e+003,3.403308e+001
1.376948e+003,3.404310e+001
1.378876e+003,3.409669e+001
1.380805e+003,3.417830e+001
1.382733e+003,3.419859e+001
1.384662e+003,3.411484e+001
1.386590e+003,3.411904e+001
1.388519e+003,3.436512e+001
1.390447e+003,3.439224e+001
1.392376e+003,3.425419e+001
1.394304e+003,3.423768e+001
1.396233e+003,3.441536e+001
1.398161e+003,3.443274e+001
1.400090e+003,3.460138e+001
1.402018e+003,3.451385e+001
1.403947e+003,3.447390e+001
1.405875e+003,3.463890e+001
1.407804e+003,3.463493e+001
1.409732e+003,3.461880e+001
1.411661e+003,3.468279e+001
1.413589e+003,3.464734e+001
1.415518e+003,3.450730e+001
1.417446e+003,3.442739e+001
1.419375e+003,3.484206e+001
1.421303e+003,3.483535e+001
1.423232e+003,3.469569e+001
1.425160e+003,3.487251e+001
1.427089e+003,3.479250e+001
1.429017e+003,3.479589e+001
1.430946e+003,3.492860e+001
1.432874e+003,3.489251e+001
1.434803e+003,3.472187e+001
1.436731e+003,3.504221e+001
1.438660e+003,3.522137e+001
1.440588e+003,3.509393e+001
1.442517e+003,3.511356e+001
1.444445e+003,3.509879e+001
1.446374e+003,3.500210e+001
1.448302e+003,3.519096e+001
1.450231e+003,3.525773e+001
1.452159e+003,3.515853e+001
1.454088e+003,3.497952e+001
1.456016e+003,3.478584e+001
1.457945e+003,3.547179e+001
1.459873e+003,3.552141e+001
1.461802e+003,3.529862e+001
1.463730e+003,3.520521e+001
1.465659e+003,3.553410e+001
1.467587e+003,3.548419e+001
1.469516e+003,3.523603e+001
1.471444e+003,3.503873e+001
1.473373e+003,3.547011e+001
1.475301e+003,3.558458e+001
1.477230e+003,3.568977e+001
1.479158e+003,3.558006e+001
1.481087e+003,3.557783e+001
1.483015e+003,3.565234e+001
1.484944e+003,3.550291e+001
1.486872e+003,3.534539e+001
1.488801e+003,3.536661e+001
1.490729e+003,3.578088e+001
1.492658e+003,3.574278e+001
1.494586e+003,3.546345e+001
1.496515e+003,3.554011e+001
1.498443e+003,3.572973e+001
1.500372e+003,3.581764e+001
1.502300e+003,3.572940e+001
1.504229e+003,3.527905e+001
1.506157e+003,3.489960e+001
1.508086e+003,3.606353e+001
1.510014e+003,3.598634e+001
1.511943e+003,3.586363e+001
1.513871e+003,3.565673e+001
1.515800e+003,3.551524e+001
1.517728e+003,3.583862e+001
1.519657e+003,3.555279e+001
1.521585e+003,3.577995e+001
1.523514e+003,3.597202e+001
1.525442e+003,3.588022e+001
1.527371e+003,3.608914e+001
1.529299e+003,3.611074e+001
1.531228e+003,3.583088e+001
1.533156e+003,3.591985e+001
1.535085e+003,3.625723e+001
1.537013e+003,3.578045e+001
1.538942e+003,3.537585e+001
1.540870e+003,3.614242e+001
1.542799e+003,3.627027e+001
1.544727e+003,3.639455e+001
1.546656e+003,3.644126e+001
1.548584e+003,3.623473e+001
1.550513e+003,3.634828e+001
1.552441e+003,3.618225e+001
1.554370e+003,3.618821e+001
1.556298e+003,3.596382e+001
1.558227e+003,3.566667e+001
1.560155e+003,3.710886e+001
1.562084e+003,3.660832e+001
1.564012e+003,3.636234e+001
1.565941e+003,3.642248e+001
1.567869e+003,3.621255e+001
1.569798e+003,3.651802e+001
1.571726e+003,3.658448e+001
1.573655e+003,3.619158e+001
1.575583e+003,3.623443e+001
1.577512e+003,3.673891e+001
1.579440e+003,3.656532e+001
1.581369e+003,3.645639e+001
1.583297e+003,3.646053e+001
1.585226e+003,3.646899e+001
1.587154e+003,3.644566e+001
1.589083e+003,3.638578e+001
1.591011e+003,3.634764e+001
1.592940e+003,3.634596e+001
1.594868e+003,3.638406e+001
1.596797e+003,3.637329e+001
1.598725e+003,3.629129e+001
1.600654e+003,3.625061e+001
1.602582e+003,3.624601e+001
1.604511e+003,3.621756e+001
1.606439e+003,3.615020e+001
1.608368e+003,3.617413e+001
1.610296e+003,3.619096e+001
1.612225e+003,3.611493e+001
1.614153e+003,3.586206e+001
1.616082e+003,3.583004e+001
1.618010e+003,3.623171e+001
1.619939e+003,3.602993e+001
1.621867e+003,3.581404e+001
1.623796e+003,3.610978e+001
1.625724e+003,3.604522e+001
1.627653e+003,3.598299e+001
1.629581e+003,3.612258e+001
1.631510e+003,3.596690e+001
1.633438e+003,3.562420e+001
1.635367e+003,3.560696e+001
1.637295e+003,3.619723e+001
1.639224e+003,3.606597e+001
1.641152e+003,3.600156e+001
1.643081e+003,3.578489e+001
1.645009e+003,3.543570e+001
1.646938e+003,3.579404e+001
1.648866e+003,3.607239e+001
1.650795e+003,3.540008e+001
1.652723e+003,3.533022e+001
1.654652e+003,3.644187e+001
1.656580e+003,3.610416e+001
1.658509e+003,3.591793e+001
1.660437e+003,3.577496e+001
1.662366e+003,3.584240e+001
1.664294e+003,3.604373e+001
1.666223e+003,3.573736e+001
1.668151e+003,3.550213e+001
1.670080e+003,3.580709e+001
1.672008e+003,3.591612e+001
1.673937e+003,3.566543e+001
1.675865e+003,3.600752e+001
1.677794e+003,3.587440e+001
1.679722e+003,3.568250e+001
1.681651e+003,3.539269e+001
1.683579e+003,3.535934e+001
1.685508e+003,3.623469e+001
1.687436e+003,3.588171e+001
1.689365e+003,3.588354e+001
1.691293e+003,3.594830e+001
1.693222e+003,3.562047e+001
1.695150e+003,3.542205e+001
1.697079e+003,3.569901e+001
1.699007e+003,3.548620e+001
1.700936e+003,3.625661e+001
1.702864e+003,3.592916e+001
1.704793e+003,3.572141e+001
1.706721e+003,3.608180e+001
1.708650e+003,3.598810e+001
1.710578e+003,3.591001e+001
1.712507e+003,3.574979e+001
1.714435e+003,3.560712e+001
1.716364e+003,3.561352e+001
1.718292e+003,3.626624e+001
1.720221e+003,3.626628e+001
1.722149e+003,3.602926e+001
1.724078e+003,3.611030e+001
1.726006e+003,3.610704e+001
1.727935e+003,3.597326e+001
1.729863e+003,3.594308e+001
1.731792e+003,3.576175e+001
1.733720e+003,3.591045e+001
1.735649e+003,3.645636e+001
1.737577e+003,3.606616e+001
1.739506e+003,3.611301e+001
1.741434e+003,3.616727e+001
1.743363e+003,3.616029e+001
1.745291e+003,3.616211e+001
1.747220e+003,3.598677e+001
1.749148e+003,3.608134e+001
1.751077e+003,3.641865e+001
1.753005e+003,3.652293e+001
1.754934e+003,3.621825e+001
1.756862e+003,3.631581e+001
1.758791e+003,3.636565e+001
1.760719e+003,3.624261e+001
1.762648e+003,3.648046e+001
1.764576e+003,3.641829e+001
1.766505e+003,3.622482e+001
1.768433e+003,3.625182e+001
1.770362e+003,3.601414e+001
1.772290e+003,3.631010e+001
1.774219e+003,3.652032e+001
1.776147e+003,3.640469e+001
1.778076e+003,3.626984e+001
1.780004e+003,3.627406e+001
1.781933e+003,3.639773e+001
1.783861e+003,3.632707e+001
1.785790e+003,3.641424e+001
1.787718e+003,3.631063e+001
1.789647e+003,3.610192e+001
1.791575e+003,3.619112e+001
1.793504e+003,3.646994e+001
1.795432e+003,3.634206e+001
1.797361e+003,3.630206e+001
1.799289e+003,3.624232e+001
1.801218e+003,3.637049e+001
1.803146e+003,3.645500e+001
1.805075e+003,3.641766e+001
1.807003e+003,3.633929e+001
1.808932e+003,3.629318e+001
1.810860e+003,3.638475e+001
1.812789e+003,3.649191e+001
1.814717e+003,3.639354e+001
1.816646e+003,3.638960e+001
1.818574e+003,3.644167e+001
1.820503e+003,3.643954e+001
1.822431e+003,3.632348e+001
1.824360e+003,3.633067e+001
1.826288e+003,3.644064e+001
1.828217e+003,3.624114e+001
1.830145e+003,3.649757e+001
1.832074e+003,3.658061e+001
1.834002e+003,3.643352e+001
1.835931e+003,3.643569e+001
1.837859e+003,3.649227e+001
1.839788e+003,3.644914e+001
1.841716e+003,3.622431e+001
1.843645e+003,3.630336e+001
1.845573e+003,3.656757e+001
1.847502e+003,3.649451e+001
1.849430e+003,3.651007e+001
1.851359e+003,3.645705e+001
1.853287e+003,3.640577e+001
1.855216e+003,3.638855e+001
1.857144e+003,3.640459e+001
1.859073e+003,3.639473e+001
1.861001e+003,3.637736e+001
1.862930e+003,3.636463e+001
1.864858e+003,3.622565e+001
1.866786e+003,3.608151e+001
1.868715e+003,3.628467e+001
1.870644e+003,3.647009e+001
1.872572e+003,3.636513e+001
1.874500e+003,3.632472e+001
1.876429e+003,3.629856e+001
1.878358e+003,3.629425e+001
1.880286e+003,3.629675e+001
1.882215e+003,3.626137e+001
1.884143e+003,3.623090e+001
1.886072e+003,3.621216e+001
1.888000e+003,3.612250e+001
1.889929e+003,3.625357e+001
1.891857e+003,3.623711e+001
1.893786e+003,3.615221e+001
1.895714e+003,3.622561e+001
1.897643e+003,3.621664e+001
1.899571e+003,3.615100e+001
1.901500e+003,3.616293e+001
1.903428e+003,3.619605e+001
1.905357e+003,3.616637e+001
1.907285e+003,3.609115e+001
1.909214e+003,3.615205e+001
1.911142e+003,3.622514e+001
1.913071e+003,3.616723e+001
1.914999e+003,3.606646e+001
1.916927e+003,3.600941e+001
1.918856e+003,3.616657e+001
1.920785e+003,3.606328e+001
1.922713e+003,3.608388e+001
1.924641e+003,3.613985e+001
1.926570e+003,3.606730e+001
1.928499e+003,3.604577e+001
1.930427e+003,3.602851e+001
1.932355e+003,3.602528e+001
1.934284e+003,3.600869e+001
1.936213e+003,3.597651e+001
1.938141e+003,3.593553e+001
1.940069e+003,3.582880e+001
1.941998e+003,3.584182e+001
1.943927e+003,3.591698e+001
1.945855e+003,3.583617e+001
1.947783e+003,3.586555e+001
1.949712e+003,3.586211e+001
1.951641e+003,3.581578e+001
1.953569e+003,3.577261e+001
1.955497e+003,3.581500e+001
1.957426e+003,3.579277e+001
1.959354e+003,3.575953e+001
1.961283e+003,3.576575e+001
1.963211e+003,3.574741e+001
1.965140e+003,3.566428e+001
1.967068e+003,3.573329e+001
1.968997e+003,3.579256e+001
1.970925e+003,3.573559e+001
1.972854e+003,3.571083e+001
1.974782e+003,3.568669e+001
1.976711e+003,3.567700e+001
1.978639e+003,3.569579e+001
1.980568e+003,3.571148e+001
1.982496e+003,3.566403e+001
1.984425e+003,3.564913e+001
1.986354e+003,3.565011e+001
1.988282e+003,3.563655e+001
1.990210e+003,3.554587e+001
1.992139e+003,3.559217e+001
1.994068e+003,3.567912e+001
1.995996e+003,3.563312e+001
1.997924e+003,3.560955e+001
1.999853e+003,3.559083e+001
2.001781e+003,3.560543e+001
2.003710e+003,3.558566e+001
2.005638e+003,3.557036e+001
2.007567e+003,3.558425e+001
2.009495e+003,3.560384e+001
2.011424e+003,3.557504e+001
2.013352e+003,3.555175e+001
2.015281e+003,3.552192e+001
2.017209e+003,3.555061e+001
2.019138e+003,3.555683e+001
2.021066e+003,3.553197e+001
2.022995e+003,3.552814e+001
2.024923e+003,3.553059e+001
2.026852e+003,3.551409e+001
2.028780e+003,3.548614e+001
2.030709e+003,3.547034e+001
2.032637e+003,3.548387e+001
2.034566e+003,3.546397e+001
2.036494e+003,3.544254e+001
2.038423e+003,3.542117e+001
2.040351e+003,3.543052e+001
2.042280e+003,3.543134e+001
2.044208e+003,3.542393e+001
2.046137e+003,3.541076e+001
2.048065e+003,3.539193e+001
2.049994e+003,3.537116e+001
2.051922e+003,3.536810e+001
2.053851e+003,3.536923e+001
2.055779e+003,3.535603e+001
2.057708e+003,3.532063e+001
2.059636e+003,3.531886e+001
2.061565e+003,3.533105e+001
2.063493e+003,3.530096e+001
2.065422e+003,3.528381e+001
2.067350e+003,3.530573e+001
2.069279e+003,3.531503e+001
2.071207e+003,3.530166e+001
2.073136e+003,3.528175e+001
2.075064e+003,3.528056e+001
2.076993e+003,3.527490e+001
2.078921e+003,3.527811e+001
2.080850e+003,3.527155e+001
2.082778e+003,3.526413e+001
2.084707e+003,3.526067e+001
2.086635e+003,3.525436e+001
2.088564e+003,3.522829e+001
2.090492e+003,3.524973e+001
2.092421e+003,3.525732e+001
2.094349e+003,3.523191e+001
2.096278e+003,3.520094e+001
2.098206e+003,3.522058e+001
2.100135e+003,3.523528e+001
2.102063e+003,3.521766e+001
2.103992e+003,3.518895e+001
2.105920e+003,3.519968e+001
2.107849e+003,3.521428e+001
2.109777e+003,3.520996e+001
2.111706e+003,3.517676e+001
2.113634e+003,3.517896e+001
2.115563e+003,3.519511e+001
2.117491e+003,3.516410e+001
2.119420e+003,3.513738e+001
2.121348e+003,3.515384e+001
2.123277e+003,3.514561e+001
2.125205e+003,3.512445e+001
2.127134e+003,3.510609e+001
2.129062e+003,3.510059e+001
2.130991e+003,3.509192e+001
2.132919e+003,3.509274e+001
2.134848e+003,3.506973e+001
2.136776e+003,3.507851e+001
2.138705e+003,3.507206e+001
2.140633e+003,3.505354e+001
2.142562e+003,3.504133e+001
2.144490e+003,3.505856e+001
2.146419e+003,3.505340e+001
2.148347e+003,3.502107e+001
2.150276e+003,3.498702e+001
2.152204e+003,3.497876e+001
2.154133e+003,3.498217e+001
2.156061e+003,3.496899e+001
2.157990e+003,3.497168e+001
2.159918e+003,3.496682e+001
2.161847e+003,3.495645e+001
2.163775e+003,3.494885e+001
2.165704e+003,3.494688e+001
2.167632e+003,3.495168e+001
2.169561e+003,3.489641e+001
2.171489e+003,3.485373e+001
2.173418e+003,3.486783e+001
2.175346e+003,3.488299e+001
2.177275e+003,3.486309e+001
2.179203e+003,3.483558e+001
2.181132e+003,3.483443e+001
2.183060e+003,3.484361e+001
2.184989e+003,3.483404e+001
2.186917e+003,3.481172e+001
2.188846e+003,3.480564e+001
2.190774e+003,3.480481e+001
2.192703e+003,3.480111e+001
2.194631e+003,3.478387e+001
2.196560e+003,3.477574e+001
2.198488e+003,3.477214e+001
2.200417e+003,3.475742e+001
2.202345e+003,3.472509e+001
2.204274e+003,3.471529e+001
2.206202e+003,3.472756e+001
2.208131e+003,3.470285e+001
2.210059e+003,3.469469e+001
2.211988e+003,3.470395e+001
2.213916e+003,3.470101e+001
2.215845e+003,3.466344e+001
2.217773e+003,3.463554e+001
2.219702e+003,3.464391e+001
2.221630e+003,3.464421e+001
2.223559e+003,3.462071e+001
2.225487e+003,3.458639e+001
2.227416e+003,3.457784e+001
2.229344e+003,3.458169e+001
2.231273e+003,3.458077e+001
2.233201e+003,3.456519e+001
2.235130e+003,3.454372e+001
2.237058e+003,3.454895e+001
2.238987e+003,3.452912e+001
2.240915e+003,3.450277e+001
2.242844e+003,3.449097e+001
2.244772e+003,3.449766e+001
2.246701e+003,3.447378e+001
2.248629e+003,3.446241e+001
2.250558e+003,3.445377e+001
2.252486e+003,3.443358e+001
2.254415e+003,3.441316e+001
2.256343e+003,3.440964e+001
2.258272e+003,3.442284e+001
2.260200e+003,3.439444e+001
2.262129e+003,3.435518e+001
2.264057e+003,3.432833e+001
2.265986e+003,3.432569e+001
2.267914e+003,3.432383e+001
2.269843e+003,3.429382e+001
2.271771e+003,3.427718e+001
2.273700e+003,3.428557e+001
2.275628e+003,3.429437e+001
2.277557e+003,3.428475e+001
2.279485e+003,3.428770e+001
2.281414e+003,3.427222e+001
2.283342e+003,3.424647e+001
2.285271e+003,3.420856e+001
2.287199e+003,3.418845e+001
2.289128e+003,3.416914e+001
2.291056e+003,3.414661e+001
2.292985e+003,3.410651e+001
2.294913e+003,3.407116e+001
2.296842e+003,3.405132e+001
2.298770e+003,3.401280e+001
2.300699e+003,3.394840e+001
2.302627e+003,3.392139e+001
2.304556e+003,3.387244e+001
2.306484e+003,3.379218e+001
2.308413e+003,3.369584e+001
2.310341e+003,3.364461e+001
2.312270e+003,3.361464e+001
2.314198e+003,3.357026e+001
2.316127e+003,3.346872e+001
2.318055e+003,3.339021e+001
2.319984e+003,3.331128e+001
2.321912e+003,3.324238e+001
2.323841e+003,3.321777e+001
2.325769e+003,3.316266e+001
2.327698e+003,3.308644e+001
2.329626e+003,3.298796e+001
2.331555e+003,3.296154e+001
2.333483e+003,3.298650e+001
2.335412e+003,3.296284e+001
2.337340e+003,3.290985e+001
2.339269e+003,3.285199e+001
2.341197e+003,3.287766e+001
2.343126e+003,3.290768e+001
2.345054e+003,3.305730e+001
2.346983e+003,3.325500e+001
2.348911e+003,3.309696e+001
2.350840e+003,3.277013e+001
2.352768e+003,3.256406e+001
2.354697e+003,3.243243e+001
2.356625e+003,3.242826e+001
2.358554e+003,3.243392e+001
2.360482e+003,3.241829e+001
2.362411e+003,3.250208e+001
2.364339e+003,3.256444e+001
2.366268e+003,3.264202e+001
2.368196e+003,3.278339e+001
2.370125e+003,3.292412e+001
2.372053e+003,3.310658e+001
2.373982e+003,3.324529e+001
2.375910e+003,3.332791e+001
2.377839e+003,3.342564e+001
2.379767e+003,3.354474e+001
2.381696e+003,3.360964e+001
2.383624e+003,3.363246e+001
2.385553e+003,3.364984e+001
2.387481e+003,3.366020e+001
2.389410e+003,3.363852e+001
2.391338e+003,3.361655e+001
2.393267e+003,3.361935e+001
2.395195e+003,3.362167e+001
2.397124e+003,3.360323e+001
2.399052e+003,3.357751e+001
2.400981e+003,3.357054e+001
2.402909e+003,3.358038e+001
2.404838e+003,3.357336e+001
2.406766e+003,3.354233e+001
2.408695e+003,3.352742e+001
2.410623e+003,3.353864e+001
2.412552e+003,3.351036e+001
2.414480e+003,3.347052e+001
2.416409e+003,3.345327e+001
2.418337e+003,3.346017e+001
2.420266e+003,3.346222e+001
2.422194e+003,3.345653e+001
2.424123e+003,3.345282e+001
2.426051e+003,3.343038e+001
2.427980e+003,3.341064e+001
2.429908e+003,3.338600e+001
2.431837e+003,3.339177e+001
2.433765e+003,3.340128e+001
2.435694e+003,3.337595e+001
2.437622e+003,3.334433e+001
2.439551e+003,3.334459e+001
2.441479e+003,3.333116e+001
2.443408e+003,3.329690e+001
2.445336e+003,3.328992e+001
2.447265e+003,3.328379e+001
2.449193e+003,3.328902e+001
2.451122e+003,3.328830e+001
2.453050e+003,3.327089e+001
2.454979e+003,3.323488e+001
2.456907e+003,3.321656e+001
2.458836e+003,3.320690e+001
2.460764e+003,3.319605e+001
2.462693e+003,3.320585e+001
2.464621e+003,3.320395e+001
2.466550e+003,3.317524e+001
2.468478e+003,3.316025e+001
2.470406e+003,3.316627e+001
2.472335e+003,3.314955e+001
2.474264e+003,3.313097e+001
2.476192e+003,3.311684e+001
2.478121e+003,3.308691e+001
2.480049e+003,3.306699e+001
2.481978e+003,3.305016e+001
2.483906e+003,3.306301e+001
2.485834e+003,3.307291e+001
2.487763e+003,3.305402e+001
2.489692e+003,3.301841e+001
2.491620e+003,3.301139e+001
2.493549e+003,3.301576e+001
2.495477e+003,3.300039e+001
2.497406e+003,3.297193e+001
2.499334e+003,3.296282e+001
2.501262e+003,3.297982e+001
2.503191e+003,3.298071e+001
2.505120e+003,3.295509e+001
2.507048e+003,3.294276e+001
2.508977e+003,3.294039e+001
2.510905e+003,3.293162e+001
2.512833e+003,3.290928e+001
2.514762e+003,3.289207e+001
2.516690e+003,3.288092e+001
2.518619e+003,3.286175e+001
2.520548e+003,3.283133e+001
2.522476e+003,3.284628e+001
2.524405e+003,3.284349e+001
2.526333e+003,3.281765e+001
2.528261e+003,3.280828e+001
2.530190e+003,3.281384e+001
2.532119e+003,3.279932e+001
2.534047e+003,3.276749e+001
2.535976e+003,3.274655e+001
2.537904e+003,3.275700e+001
2.539833e+003,3.276326e+001
2.541761e+003,3.274525e+001
2.543689e+003,3.271354e+001
2.545618e+003,3.271570e+001
2.547547e+003,3.270045e+001
2.549475e+003,3.269286e+001
2.551404e+003,3.269852e+001
2.553332e+003,3.266785e+001
2.555260e+003,3.263017e+001
2.557189e+003,3.263677e+001
2.559117e+003,3.262545e+001
2.561046e+003,3.262095e+001
2.562975e+003,3.261906e+001
2.564903e+003,3.258810e+001
2.566832e+003,3.257544e+001
2.568760e+003,3.259129e+001
2.570688e+003,3.257203e+001
2.572617e+003,3.253910e+001
2.574545e+003,3.254713e+001
2.576474e+003,3.255877e+001
2.578403e+003,3.252279e+001
2.580331e+003,3.247549e+001
2.582260e+003,3.245543e+001
2.584188e+003,3.246856e+001
2.586116e+003,3.246453e+001
2.588045e+003,3.243455e+001
2.589973e+003,3.241112e+001
2.591902e+003,3.241199e+001
2.593831e+003,3.240979e+001
2.595759e+003,3.238570e+001
2.597688e+003,3.238405e+001
2.599616e+003,3.239535e+001
2.601544e+003,3.235555e+001
2.603473e+003,3.230553e+001
2.605401e+003,3.229417e+001
2.607330e+003,3.230878e+001
2.609259e+003,3.230154e+001
2.611187e+003,3.228342e+001
2.613115e+003,3.228500e+001
2.615044e+003,3.229406e+001
2.616972e+003,3.228101e+001
2.618901e+003,3.224750e+001
2.620830e+003,3.223260e+001
2.622758e+003,3.222485e+001
2.624687e+003,3.218954e+001
2.626615e+003,3.216391e+001
2.628543e+003,3.217084e+001
2.630472e+003,3.214850e+001
2.632400e+003,3.212452e+001
2.634329e+003,3.211742e+001
2.636258e+003,3.211412e+001
2.638186e+003,3.210511e+001
2.640115e+003,3.209723e+001
2.642043e+003,3.208225e+001
2.643971e+003,3.209608e+001
2.645900e+003,3.208318e+001
2.647828e+003,3.204800e+001
2.649757e+003,3.203090e+001
2.651686e+003,3.203044e+001
2.653614e+003,3.201534e+001
2.655542e+003,3.200089e+001
2.657471e+003,3.200092e+001
2.659399e+003,3.199457e+001
2.661328e+003,3.197330e+001
2.663256e+003,3.196077e+001
2.665185e+003,3.194508e+001
2.667114e+003,3.195526e+001
2.669042e+003,3.195260e+001
2.670970e+003,3.190842e+001
2.672899e+003,3.188604e+001
2.674827e+003,3.187537e+001
2.676756e+003,3.185443e+001
2.678684e+003,3.183521e+001
2.680613e+003,3.184633e+001
2.682542e+003,3.186902e+001
2.684470e+003,3.185361e+001
2.686398e+003,3.180354e+001
2.688327e+003,3.178065e+001
2.690255e+003,3.181209e+001
2.692184e+003,3.183268e+001
2.694112e+003,3.178400e+001
2.696041e+003,3.175281e+001
2.697969e+003,3.176753e+001
2.699898e+003,3.175753e+001
2.701826e+003,3.174021e+001
2.703755e+003,3.174715e+001
2.705683e+003,3.175068e+001
2.707612e+003,3.171607e+001
2.709540e+003,3.168628e+001
2.711469e+003,3.167887e+001
2.713397e+003,3.165527e+001
2.715326e+003,3.162814e+001
2.717254e+003,3.162428e+001
2.719183e+003,3.164703e+001
2.721111e+003,3.164761e+001
2.723040e+003,3.162536e+001
2.724969e+003,3.158606e+001
2.726897e+003,3.159912e+001
2.728825e+003,3.160296e+001
2.730754e+003,3.156321e+001
2.732682e+003,3.154343e+001
2.734611e+003,3.156331e+001
2.736539e+003,3.156163e+001
2.738468e+003,3.152826e+001
2.740396e+003,3.150633e+001
2.742325e+003,3.150705e+001
2.744253e+003,3.148389e+001
2.746182e+003,3.146212e+001
2.748110e+003,3.144830e+001
2.750039e+003,3.146092e+001
2.751967e+003,3.146513e+001
2.753896e+003,3.144466e+001
2.755824e+003,3.140012e+001
2.757753e+003,3.140781e+001
2.759681e+003,3.142776e+001
2.761610e+003,3.140207e+001
2.763538e+003,3.138410e+001
2.765467e+003,3.137869e+001
2.767395e+003,3.134385e+001
2.769324e+003,3.134359e+001
2.771252e+003,3.135123e+001
2.773181e+003,3.134712e+001
2.775109e+003,3.132560e+001
2.777038e+003,3.129318e+001
2.778966e+003,3.127883e+001
2.780895e+003,3.129511e+001
2.782823e+003,3.128837e+001
2.784752e+003,3.127463e+001
2.786680e+003,3.126486e+001
2.788609e+003,3.123949e+001
2.790537e+003,3.119840e+001
2.792466e+003,3.119721e+001
2.794394e+003,3.120375e+001
2.796323e+003,3.119618e+001
2.798251e+003,3.117361e+001
2.800180e+003,3.115546e+001
2.802108e+003,3.113320e+001
2.804037e+003,3.112417e+001
2.805965e+003,3.111497e+001
2.807894e+003,3.108599e+001
2.809822e+003,3.107110e+001
2.811751e+003,3.107944e+001
2.813679e+003,3.108113e+001
2.815608e+003,3.106062e+001
2.817536e+003,3.105387e+001
2.819465e+003,3.106105e+001
2.821393e+003,3.103946e+001
2.823322e+003,3.099853e+001
2.825250e+003,3.098867e+001
2.827179e+003,3.097848e+001
2.829107e+003,3.094995e+001
2.831036e+003,3.093886e+001
2.832964e+003,3.096230e+001
2.834893e+003,3.095396e+001
2.836821e+003,3.090615e+001
2.838750e+003,3.087537e+001
2.840678e+003,3.087071e+001
2.842607e+003,3.084259e+001
2.844535e+003,3.080074e+001
2.846464e+003,3.076230e+001
2.848392e+003,3.072559e+001
2.850321e+003,3.069087e+001
2.852249e+003,3.067763e+001
2.854178e+003,3.067747e+001
2.856106e+003,3.067073e+001
2.858035e+003,3.068023e+001
2.859963e+003,3.066646e+001
2.861892e+003,3.065318e+001
2.863820e+003,3.067656e+001
2.865749e+003,3.068226e+001
2.867677e+003,3.065372e+001
2.869606e+003,3.062525e+001
2.871534e+003,3.063993e+001
2.873463e+003,3.062491e+001
2.875391e+003,3.059710e+001
2.877320e+003,3.060076e+001
2.879248e+003,3.063507e+001
2.881177e+003,3.060772e+001
2.883105e+003,3.055513e+001
2.885034e+003,3.056490e+001
2.886962e+003,3.057464e+001
2.888891e+003,3.054152e+001
2.890819e+003,3.049957e+001
2.892748e+003,3.050385e+001
2.894676e+003,3.049731e+001
2.896605e+003,3.046850e+001
2.898533e+003,3.044246e+001
2.900462e+003,3.044737e+001
2.902390e+003,3.042767e+001
2.904319e+003,3.039883e+001
2.906247e+003,3.038538e+001
2.908176e+003,3.035334e+001
2.910104e+003,3.031522e+001
2.912033e+003,3.028115e+001
2.913961e+003,3.021717e+001
2.915890e+003,3.016675e+001
2.917818e+003,3.016645e+001
2.919747e+003,3.017217e+001
2.921675e+003,3.014079e+001
2.923604e+003,3.015122e+001
2.925532e+003,3.016403e+001
2.927461e+003,3.012945e+001
2.929389e+003,3.010986e+001
2.931318e+003,3.014778e+001
2.933246e+003,3.017236e+001
2.935175e+003,3.019380e+001
2.937103e+003,3.018307e+001
2.939032e+003,3.017875e+001
2.940960e+003,3.019654e+001
2.942889e+003,3.017631e+001
2.944817e+003,3.015456e+001
2.946746e+003,3.017137e+001
2.948674e+003,3.016815e+001
2.950603e+003,3.012884e+001
2.952531e+003,3.009978e+001
2.954460e+003,3.013676e+001
2.956388e+003,3.013106e+001
2.958317e+003,3.011695e+001
2.960245e+003,3.010471e+001
2.962174e+003,3.009176e+001
2.964102e+003,3.007928e+001
2.966031e+003,3.008497e+001
2.967959e+003,3.009201e+001
2.969888e+003,3.011221e+001
2.971816e+003,3.009240e+001
2.973745e+003,3.004650e+001
2.975673e+003,3.003229e+001
2.977602e+003,3.004843e+001
2.979530e+003,3.006500e+001
2.981459e+003,3.004940e+001
2.983387e+003,3.003864e+001
2.985316e+003,3.004498e+001
2.987244e+003,3.003284e+001
2.989173e+003,3.003766e+001
2.991101e+003,3.001651e+001
2.993030e+003,2.999691e+001
2.994958e+003,2.997274e+001
2.996887e+003,2.994486e+001
2.998815e+003,2.995140e+001
3.000744e+003,2.997023e+001
3.002672e+003,2.994742e+001
3.004601e+003,2.993407e+001
3.006529e+003,2.992610e+001
3.008458e+003,2.989449e+001
3.010386e+003,2.986647e+001
3.012315e+003,2.985395e+001
3.014243e+003,2.985190e+001
3.016172e+003,2.984546e+001
3.018100e+003,2.983420e+001
3.020029e+003,2.981702e+001
3.021957e+003,2.981841e+001
3.023886e+003,2.983855e+001
3.025814e+003,2.980856e+001
3.027743e+003,2.976743e+001
3.029671e+003,2.977342e+001
3.031600e+003,2.981042e+001
3.033528e+003,2.977674e+001
3.035457e+003,2.973931e+001
3.037385e+003,2.975479e+001
3.039314e+003,2.973775e+001
3.041242e+003,2.969468e+001
3.043171e+003,2.969055e+001
3.045099e+003,2.972287e+001
3.047028e+003,2.969156e+001
3.048956e+003,2.966568e+001
3.050885e+003,2.966853e+001
3.052813e+003,2.969334e+001
3.054742e+003,2.965504e+001
3.056670e+003,2.960294e+001
3.058599e+003,2.959240e+001
3.060527e+003,2.959478e+001
3.062456e+003,2.956488e+001
3.064384e+003,2.954375e+001
3.066313e+003,2.955835e+001
3.068241e+003,2.958087e+001
3.070170e+003,2.954347e+001
3.072098e+003,2.949269e+001
3.074027e+003,2.947917e+001
3.075955e+003,2.950312e+001
3.077884e+003,2.948603e+001
3.079812e+003,2.947088e+001
3.081741e+003,2.945748e+001
3.083669e+003,2.943399e+001
3.085598e+003,2.940572e+001
3.087526e+003,2.941461e+001
3.089455e+003,2.942190e+001
3.091383e+003,2.943665e+001
3.093312e+003,2.940548e+001
3.095240e+003,2.937062e+001
3.097169e+003,2.937317e+001
3.099097e+003,2.935613e+001
3.101026e+003,2.934651e+001
3.102954e+003,2.934313e+001
3.104883e+003,2.934671e+001
3.106811e+003,2.934819e+001
3.108740e+003,2.931622e+001
3.110668e+003,2.928976e+001
3.112597e+003,2.927929e+001
3.114525e+003,2.924154e+001
3.116454e+003,2.923689e+001
3.118382e+003,2.924081e+001
3.120311e+003,2.922649e+001
3.122239e+003,2.922035e+001
3.124167e+003,2.920948e+001
3.126096e+003,2.916698e+001
3.128025e+003,2.917822e+001
3.129953e+003,2.916780e+001
3.131882e+003,2.914213e+001
3.133810e+003,2.914681e+001
3.135739e+003,2.915096e+001
3.137667e+003,2.912633e+001
3.139595e+003,2.909880e+001
3.141524e+003,2.907573e+001
3.143453e+003,2.909759e+001
3.145381e+003,2.909498e+001
3.147310e+003,2.901061e+001
3.149238e+003,2.895366e+001
3.151167e+003,2.902196e+001
3.153095e+003,2.902363e+001
3.155023e+003,2.896832e+001
3.156952e+003,2.895185e+001
3.158881e+003,2.898267e+001
3.160809e+003,2.897298e+001
3.162738e+003,2.892944e+001
3.164666e+003,2.891498e+001
3.166594e+003,2.891006e+001
3.168523e+003,2.887976e+001
3.170452e+003,2.886816e+001
3.172380e+003,2.886014e+001
3.174309e+003,2.885518e+001
3.176237e+003,2.884028e+001
3.178166e+003,2.882051e+001
3.180094e+003,2.879648e+001
3.182022e+003,2.878258e+001
3.183951e+003,2.876446e+001
3.185880e+003,2.872596e+001
3.187808e+003,2.872094e+001
3.189737e+003,2.875644e+001
3.191665e+003,2.871848e+001
3.193594e+003,2.865965e+001
3.195522e+003,2.863685e+001
3.197450e+003,2.865219e+001
3.199379e+003,2.864235e+001
3.201308e+003,2.861299e+001
3.203236e+003,2.859318e+001
3.205165e+003,2.857227e+001
3.207093e+003,2.856613e+001
3.209021e+003,2.855289e+001
3.210950e+003,2.854350e+001
3.212878e+003,2.852304e+001
3.214807e+003,2.849318e+001
3.216736e+003,2.844032e+001
3.218664e+003,2.842745e+001
3.220593e+003,2.844163e+001
3.222521e+003,2.841904e+001
3.224449e+003,2.839623e+001
3.226378e+003,2.840444e+001
3.228306e+003,2.841607e+001
3.230235e+003,2.840242e+001
3.232164e+003,2.838490e+001
3.234092e+003,2.835684e+001
3.236021e+003,2.833776e+001
3.237949e+003,2.831420e+001
3.239877e+003,2.829405e+001
3.241806e+003,2.831672e+001
3.243734e+003,2.826775e+001
3.245663e+003,2.821828e+001
3.247592e+003,2.819598e+001
3.249520e+003,2.821774e+001
3.251448e+003,2.820227e+001
3.253377e+003,2.819202e+001
3.255305e+003,2.819669e+001
3.257234e+003,2.815980e+001
3.259162e+003,2.814645e+001
3.261091e+003,2.815065e+001
3.263020e+003,2.815976e+001
3.264948e+003,2.813631e+001
3.266876e+003,2.810664e+001
3.268805e+003,2.808249e+001
3.270733e+003,2.804745e+001
3.272662e+003,2.805370e+001
3.274591e+003,2.805196e+001
3.276519e+003,2.800736e+001
3.278448e+003,2.796965e+001
3.280376e+003,2.796341e+001
3.282304e+003,2.796279e+001
3.284233e+003,2.795711e+001
3.286161e+003,2.793920e+001
3.288090e+003,2.795525e+001
3.290019e+003,2.792551e+001
3.291947e+003,2.785814e+001
3.293875e+003,2.788620e+001
3.295804e+003,2.790673e+001
3.297732e+003,2.788839e+001
3.299661e+003,2.785423e+001
3.301589e+003,2.783883e+001
3.303518e+003,2.782895e+001
3.305447e+003,2.779127e+001
3.307375e+003,2.774700e+001
3.309303e+003,2.776837e+001
3.311232e+003,2.777819e+001
3.313160e+003,2.775236e+001
3.315089e+003,2.773305e+001
3.317017e+003,2.773306e+001
3.318946e+003,2.772867e+001
3.320875e+003,2.769488e+001
3.322803e+003,2.763837e+001
3.324731e+003,2.764406e+001
3.326660e+003,2.763591e+001
3.328588e+003,2.760468e+001
3.330517e+003,2.758983e+001
3.332445e+003,2.760185e+001
3.334374e+003,2.758614e+001
3.336302e+003,2.755018e+001
3.338231e+003,2.751003e+001
3.340159e+003,2.752282e+001
3.342088e+003,2.752677e+001
3.344016e+003,2.746661e+001
3.345945e+003,2.741578e+001
3.347873e+003,2.740719e+001
3.349802e+003,2.740018e+001
3.351730e+003,2.735638e+001
3.353659e+003,2.733974e+001
3.355587e+003,2.736241e+001
3.357516e+003,2.731273e+001
3.359444e+003,2.725409e+001
3.361373e+003,2.725736e+001
3.363302e+003,2.727491e+001
3.365230e+003,2.727187e+001
3.367158e+003,2.725805e+001
3.369087e+003,2.720791e+001
3.371015e+003,2.720171e+001
3.372944e+003,2.720074e+001
3.374872e+003,2.714772e+001
3.376801e+003,2.712953e+001
3.378729e+003,2.714819e+001
3.380658e+003,2.710446e+001
3.382586e+003,2.702838e+001
3.384515e+003,2.702578e+001
3.386443e+003,2.702984e+001
3.388372e+003,2.702735e+001
3.390300e+003,2.696645e+001
3.392229e+003,2.693837e+001
3.394157e+003,2.695098e+001
3.396086e+003,2.692672e+001
3.398014e+003,2.694547e+001
3.399943e+003,2.695393e+001
3.401871e+003,2.693515e+001
3.403800e+003,2.690888e+001
3.405728e+003,2.690986e+001
3.407657e+003,2.688197e+001
3.409585e+003,2.682885e+001
3.411514e+003,2.677744e+001
3.413442e+003,2.677391e+001
3.415371e+003,2.679057e+001
3.417299e+003,2.676652e+001
3.419228e+003,2.672503e+001
3.421156e+003,2.674361e+001
3.423085e+003,2.675315e+001
3.425013e+003,2.673915e+001
3.426942e+003,2.668935e+001
3.428870e+003,2.664263e+001
3.430799e+003,2.669919e+001
3.432727e+003,2.671940e+001
3.434656e+003,2.664856e+001
3.436584e+003,2.660636e+001
3.438513e+003,2.662089e+001
3.440441e+003,2.660956e+001
3.442370e+003,2.658537e+001
3.444298e+003,2.656822e+001
3.446227e+003,2.660151e+001
3.448155e+003,2.669190e+001
3.450084e+003,2.663286e+001
3.452012e+003,2.661809e+001
3.453941e+003,2.662609e+001
3.455869e+003,2.661482e+001
3.457798e+003,2.656220e+001
3.459726e+003,2.656810e+001
3.461655e+003,2.661011e+001
3.463583e+003,2.658267e+001
3.465512e+003,2.653343e+001
3.467440e+003,2.653910e+001
3.469369e+003,2.652901e+001
3.471297e+003,2.655898e+001
3.473226e+003,2.650610e+001
3.475154e+003,2.650896e+001
3.477083e+003,2.654193e+001
3.479011e+003,2.650981e+001
3.480940e+003,2.656052e+001
3.482868e+003,2.663062e+001
3.484797e+003,2.656143e+001
3.486725e+003,2.647961e+001
3.488654e+003,2.650842e+001
3.490582e+003,2.653643e+001
3.492511e+003,2.651815e+001
3.494439e+003,2.648118e+001
3.496368e+003,2.650723e+001
3.498296e+003,2.647890e+001
3.500225e+003,2.638110e+001
3.502153e+003,2.638406e+001
3.504082e+003,2.652030e+001
3.506010e+003,2.650806e+001
3.507939e+003,2.642034e+001
3.509867e+003,2.646305e+001
3.511796e+003,2.651093e+001
3.513724e+003,2.650767e+001
3.515653e+003,2.647837e+001
3.517581e+003,2.647811e+001
3.519510e+003,2.644973e+001
3.521438e+003,2.639707e+001
3.523367e+003,2.646400e+001
3.525295e+003,2.639942e+001
3.527224e+003,2.641051e+001
3.529152e+003,2.657113e+001
3.531081e+003,2.659360e+001
3.533009e+003,2.650585e+001
3.534938e+003,2.644431e+001
3.536866e+003,2.657497e+001
3.538795e+003,2.651944e+001
3.540723e+003,2.638827e+001
3.542652e+003,2.625699e+001
3.544580e+003,2.630801e+001
3.546509e+003,2.652836e+001
3.548437e+003,2.654845e+001
3.550366e+003,2.639788e+001
3.552294e+003,2.652319e+001
3.554223e+003,2.660402e+001
3.556151e+003,2.652471e+001
3.558080e+003,2.644450e+001
3.560008e+003,2.647155e+001
3.561937e+003,2.640444e+001
3.563865e+003,2.624730e+001
3.565794e+003,2.629983e+001
3.567722e+003,2.678222e+001
3.569651e+003,2.670925e+001
3.571579e+003,2.655662e+001
3.573508e+003,2.648191e+001
3.575436e+003,2.648308e+001
3.577365e+003,2.647726e+001
3.579293e+003,2.650710e+001
3.581222e+003,2.651589e+001
3.583150e+003,2.643495e+001
3.585079e+003,2.620405e+001
3.587007e+003,2.633810e+001
3.588936e+003,2.666432e+001
3.590864e+003,2.646371e+001
3.592793e+003,2.632768e+001
3.594721e+003,2.651682e+001
3.596650e+003,2.657244e+001
3.598578e+003,2.643601e+001
3.600507e+003,2.648087e+001
3.602435e+003,2.655906e+001
3.604364e+003,2.642676e+001
3.606292e+003,2.630198e+001
3.608221e+003,2.651726e+001
3.610149e+003,2.653500e+001
3.612078e+003,2.639617e+001
3.614006e+003,2.659388e+001
3.615935e+003,2.642676e+001
3.617863e+003,2.635213e+001
3.619792e+003,2.676333e+001
3.621720e+003,2.676794e+001
3.623649e+003,2.649278e+001
3.625577e+003,2.622730e+001
3.627506e+003,2.618102e+001
3.629434e+003,2.715584e+001
3.631363e+003,2.681724e+001
3.633291e+003,2.659172e+001
3.635220e+003,2.668046e+001
3.637148e+003,2.659536e+001
3.639077e+003,2.655690e+001
3.641005e+003,2.649631e+001
3.642934e+003,2.651299e+001
3.644862e+003,2.623424e+001
3.646791e+003,2.608651e+001
3.648719e+003,2.650423e+001
3.650648e+003,2.720839e+001
3.652576e+003,2.684534e+001
3.654505e+003,2.638314e+001
3.656433e+003,2.668077e+001
3.658362e+003,2.674938e+001
3.660290e+003,2.663987e+001
3.662219e+003,2.659346e+001
3.664147e+003,2.650468e+001
3.666076e+003,2.630977e+001
3.668004e+003,2.608804e+001
3.669933e+003,2.659409e+001
3.671861e+003,2.655669e+001
3.673790e+003,2.594133e+001
3.675718e+003,2.681288e+001
3.677647e+003,2.676768e+001
3.679575e+003,2.665600e+001
3.681504e+003,2.664122e+001
3.683432e+003,2.644998e+001
3.685361e+003,2.616232e+001
3.687289e+003,2.596915e+001
3.689218e+003,2.654104e+001
3.691146e+003,2.679754e+001
3.693075e+003,2.664143e+001
3.695003e+003,2.646442e+001
3.696932e+003,2.647281e+001
3.698860e+003,2.625492e+001
3.700789e+003,2.631004e+001
3.702717e+003,2.662627e+001
3.704646e+003,2.648065e+001
3.706574e+003,2.629566e+001
3.708503e+003,2.611307e+001
3.710431e+003,2.624349e+001
3.712360e+003,2.678112e+001
3.714288e+003,2.669249e+001
3.716217e+003,2.640176e+001
3.718145e+003,2.634943e+001
3.720074e+003,2.630507e+001
3.722002e+003,2.633443e+001
3.723931e+003,2.634947e+001
3.725859e+003,2.636832e+001
3.727788e+003,2.644164e+001
3.729716e+003,2.604427e+001
3.731645e+003,2.590329e+001
3.733573e+003,2.600613e+001
3.735502e+003,2.654380e+001
3.737430e+003,2.665997e+001
3.739359e+003,2.636028e+001
3.741287e+003,2.616247e+001
3.743216e+003,2.601726e+001
3.745144e+003,2.660134e+001
3.747073e+003,2.612222e+001
3.749001e+003,2.593898e+001
3.750930e+003,2.650690e+001
3.752858e+003,2.679331e+001
3.754787e+003,2.644644e+001
3.756715e+003,2.631268e+001
3.758644e+003,2.643571e+001
3.760572e+003,2.663996e+001
3.762500e+003,2.641818e+001
3.764429e+003,2.632642e+001
3.766358e+003,2.638336e+001
3.768286e+003,2.618824e+001
3.770215e+003,2.656273e+001
3.772143e+003,2.659326e+001
3.774072e+003,2.636691e+001
3.776000e+003,2.621743e+001
3.777928e+003,2.614490e+001
3.779857e+003,2.647704e+001
3.781786e+003,2.631955e+001
3.783714e+003,2.618773e+001
3.785643e+003,2.638070e+001
3.787571e+003,2.638433e+001
3.789500e+003,2.631662e+001
3.791428e+003,2.624665e+001
3.793356e+003,2.610616e+001
3.795285e+003,2.603118e+001
3.797214e+003,2.624535e+001
3.799142e+003,2.591280e+001
3.801071e+003,2.617826e+001
3.802999e+003,2.655476e+001
3.804927e+003,2.598507e+001
3.806856e+003,2.629733e+001
3.808785e+003,2.651341e+001
3.810713e+003,2.626136e+001
3.812642e+003,2.596678e+001
3.814570e+003,2.577847e+001
3.816499e+003,2.631193e+001
3.818427e+003,2.592720e+001
3.820355e+003,2.587216e+001
3.822284e+003,2.654609e+001
3.824213e+003,2.617966e+001
3.826141e+003,2.614318e+001
3.828070e+003,2.620946e+001
3.829998e+003,2.595328e+001
3.831927e+003,2.599018e+001
3.833855e+003,2.583865e+001
3.835783e+003,2.569344e+001
3.837712e+003,2.588180e+001
3.839641e+003,2.622616e+001
3.841569e+003,2.619771e+001
3.843498e+003,2.622629e+001
3.845426e+003,2.623000e+001
3.847354e+003,2.597743e+001
3.849283e+003,2.572496e+001
3.851211e+003,2.535237e+001
3.853140e+003,2.608593e+001
3.855069e+003,2.649552e+001
3.856997e+003,2.623571e+001
3.858926e+003,2.600635e+001
3.860854e+003,2.574823e+001
3.862782e+003,2.567776e+001
3.864711e+003,2.599673e+001
3.866639e+003,2.589612e+001
3.868568e+003,2.557177e+001
3.870497e+003,2.619874e+001
3.872425e+003,2.592431e+001
3.874354e+003,2.610812e+001
3.876282e+003,2.604117e+001
3.878210e+003,2.569301e+001
3.880139e+003,2.588021e+001
3.882067e+003,2.606889e+001
3.883996e+003,2.581763e+001
3.885925e+003,2.622500e+001
3.887853e+003,2.604233e+001
3.889781e+003,2.577267e+001
3.891710e+003,2.605750e+001
3.893638e+003,2.607635e+001
3.895567e+003,2.582990e+001
3.897495e+003,2.561307e+001
3.899424e+003,2.566955e+001
3.901353e+003,2.575781e+001
3.903281e+003,2.585870e+001
3.905209e+003,2.620402e+001
3.907138e+003,2.612937e+001
3.909066e+003,2.593659e+001
3.910995e+003,2.581342e+001
3.912924e+003,2.576474e+001
3.914852e+003,2.570027e+001
3.916781e+003,2.586546e+001
3.918709e+003,2.592350e+001
3.920637e+003,2.593339e+001
3.922566e+003,2.574349e+001
3.924494e+003,2.585736e+001
3.926423e+003,2.587297e+001
3.928352e+003,2.571212e+001
3.930280e+003,2.573177e+001
3.932208e+003,2.588219e+001
3.934137e+003,2.590141e+001
3.936065e+003,2.579954e+001
3.937994e+003,2.583362e+001
3.939922e+003,2.573732e+001
3.941851e+003,2.571084e+001
3.943780e+003,2.587327e+001
3.945708e+003,2.575376e+001
3.947636e+003,2.565962e+001
3.949565e+003,2.576612e+001
3.951493e+003,2.578535e+001
3.953422e+003,2.579195e+001
3.955350e+003,2.577005e+001
3.957279e+003,2.570315e+001
3.959208e+003,2.567408e+001
3.961136e+003,2.569433e+001
3.963064e+003,2.574927e+001
3.964993e+003,2.572591e+001
3.966921e+003,2.565617e+001
3.968850e+003,2.563372e+001
3.970778e+003,2.564619e+001
3.972707e+003,2.567175e+001
3.974635e+003,2.573177e+001
3.976564e+003,2.571081e+001
3.978492e+003,2.560768e+001
3.980421e+003,2.560765e+001
3.982349e+003,2.565091e+001
3.984278e+003,2.568571e+001
3.986206e+003,2.566723e+001
3.988135e+003,2.563067e+001
3.990063e+003,2.565488e+001
3.991992e+003,2.565275e+001
3.993920e+003,2.556557e+001
3.995849e+003,2.554744e+001
3.997777e+003,2.561799e+001
3.999706e+003,2.563953e+001
