3.991992e+002,6.746649e-001
4.011277e+002,6.496521e-001
4.030562e+002,6.343380e-001
4.049847e+002,6.184124e-001
4.069132e+002,6.075652e-001
4.088417e+002,6.003820e-001
4.107702e+002,5.950260e-001
4.126987e+002,5.895361e-001
4.146272e+002,5.848877e-001
4.165557e+002,5.830486e-001
4.184842e+002,5.871510e-001
4.204127e+002,5.885180e-001
4.223412e+002,5.864745e-001
4.242697e+002,5.866274e-001
4.261982e+002,5.907729e-001
4.281267e+002,5.956669e-001
4.300552e+002,6.020454e-001
4.319837e+002,6.123049e-001
4.339122e+002,6.224022e-001
4.358407e+002,6.317735e-001
4.377692e+002,6.429633e-001
4.396977e+002,6.564382e-001
4.416262e+002,6.757390e-001
4.435547e+002,6.976209e-001
4.454832e+002,7.186900e-001
4.474117e+002,7.422832e-001
4.493401e+002,7.677372e-001
4.512686e+002,7.940351e-001
4.531971e+002,8.229570e-001
4.551256e+002,8.461204e-001
4.570541e+002,8.691896e-001
4.589826e+002,8.961235e-001
4.609111e+002,9.125269e-001
4.628396e+002,9.259955e-001
4.647681e+002,9.310148e-001
4.666966e+002,9.296938e-001
4.686251e+002,9.161741e-001
4.705536e+002,8.988634e-001
4.724821e+002,8.743984e-001
4.744106e+002,8.459809e-001
4.763391e+002,8.206422e-001
4.782676e+002,7.969117e-001
4.801961e+002,7.799513e-001
4.821246e+002,7.658763e-001
4.840531e+002,7.526503e-001
4.859816e+002,7.416348e-001
4.879101e+002,7.359827e-001
4.898386e+002,7.321944e-001
4.917671e+002,7.287836e-001
4.936956e+002,7.270875e-001
4.956241e+002,7.281896e-001
4.975526e+002,7.294951e-001
4.994811e+002,7.321185e-001
5.014096e+002,7.348766e-001
5.033381e+002,7.423334e-001
5.052666e+002,7.494080e-001
5.071951e+002,7.594019e-001
5.091236e+002,7.696824e-001
5.110521e+002,7.797419e-001
5.129806e+002,7.899788e-001
5.149091e+002,8.021569e-001
5.168376e+002,8.187029e-001
5.187661e+002,8.394033e-001
5.206946e+002,8.599498e-001
5.226231e+002,8.800980e-001
5.245516e+002,8.985720e-001
5.264801e+002,9.236436e-001
5.284086e+002,9.503487e-001
5.303371e+002,9.759178e-001
5.322656e+002,1.000912e+000
5.341941e+002,1.029231e+000
5.361226e+002,1.060101e+000
5.380511e+002,1.091627e+000
5.399796e+002,1.117613e+000
5.419081e+002,1.146690e+000
5.438365e+002,1.181858e+000
5.457651e+002,1.211904e+000
5.476936e+002,1.224466e+000
5.496221e+002,1.239239e+000
5.515506e+002,1.253574e+000
5.534791e+002,1.262883e+000
5.554076e+002,1.263639e+000
5.573361e+002,1.257318e+000
5.592646e+002,1.244542e+000
5.611931e+002,1.237702e+000
5.631216e+002,1.229094e+000
5.650500e+002,1.217109e+000
5.669786e+002,1.205937e+000
5.689070e+002,1.196954e+000
5.708356e+002,1.186878e+000
5.727640e+002,1.169479e+000
5.746926e+002,1.144529e+000
5.766210e+002,1.115597e+000
5.785496e+002,1.084337e+000
5.804780e+002,1.047360e+000
5.824066e+002,1.009072e+000
5.843350e+002,9.709951e-001
5.862635e+002,9.331888e-001
5.881920e+002,8.982072e-001
5.901205e+002,8.659963e-001
5.920490e+002,8.340663e-001
5.939775e+002,8.071806e-001
5.959060e+002,7.840562e-001
5.978345e+002,7.620940e-001
5.997631e+002,7.420015e-001
6.016915e+002,7.236279e-001
6.036201e+002,7.074023e-001
6.055485e+002,6.930869e-001
6.074771e+002,6.789778e-001
6.094055e+002,6.657926e-001
6.113340e+002,6.532990e-001
6.132625e+002,6.411596e-001
6.151910e+002,6.296779e-001
6.171195e+002,6.189421e-001
6.190480e+002,6.089481e-001
6.209765e+002,5.994444e-001
6.229050e+002,5.900161e-001
6.248335e+002,5.808607e-001
6.267620e+002,5.730625e-001
6.286905e+002,5.668027e-001
6.306190e+002,5.610622e-001
6.325475e+002,5.556145e-001
6.344760e+002,5.511006e-001
6.364045e+002,5.480167e-001
6.383330e+002,5.454990e-001
6.402615e+002,5.434216e-001
6.421900e+002,5.422736e-001
6.441185e+002,5.424690e-001
6.460470e+002,5.444079e-001
6.479755e+002,5.472554e-001
6.499040e+002,5.511757e-001
6.518325e+002,5.564208e-001
6.537610e+002,5.634307e-001
6.556895e+002,5.704787e-001
6.576180e+002,5.781332e-001
6.595465e+002,5.852452e-001
6.614750e+002,5.916042e-001
6.634035e+002,5.962263e-001
6.653320e+002,5.989234e-001
6.672605e+002,6.020190e-001
6.691890e+002,6.035247e-001
6.711175e+002,5.983563e-001
6.730460e+002,5.946210e-001
6.749745e+002,5.906245e-001
6.769030e+002,5.851189e-001
6.788315e+002,5.796147e-001
6.807599e+002,5.740161e-001
6.826885e+002,5.684946e-001
6.846169e+002,5.630499e-001
6.865455e+002,5.577067e-001
6.884739e+002,5.531134e-001
6.904025e+002,5.494389e-001
6.923309e+002,5.463169e-001
6.942595e+002,5.433862e-001
6.961880e+002,5.394163e-001
6.981165e+002,5.350869e-001
7.000450e+002,5.303943e-001
7.019734e+002,5.267316e-001
7.039020e+002,5.235085e-001
7.058304e+002,5.208905e-001
7.077590e+002,5.182894e-001
7.096874e+002,5.156446e-001
7.116160e+002,5.129651e-001
7.135444e+002,5.104724e-001
7.154730e+002,5.078745e-001
7.174014e+002,5.054145e-001
7.193300e+002,5.029606e-001
7.212584e+002,5.001286e-001
7.231870e+002,4.966896e-001
7.251154e+002,4.940049e-001
7.270439e+002,4.914800e-001
7.289724e+002,4.887927e-001
7.309009e+002,4.861758e-001
7.328294e+002,4.838485e-001
7.347579e+002,4.809687e-001
7.366864e+002,4.783272e-001
7.386149e+002,4.757450e-001
7.405434e+002,4.734419e-001
7.424719e+002,4.712603e-001
7.444004e+002,4.690063e-001
7.463289e+002,4.660540e-001
7.482574e+002,4.636199e-001
7.501859e+002,4.612866e-001
7.521144e+002,4.589063e-001
7.540429e+002,4.561574e-001
7.559714e+002,4.533213e-001
7.578999e+002,4.499041e-001
7.598284e+002,4.461828e-001
7.617569e+002,4.425603e-001
7.636854e+002,4.394234e-001
7.656139e+002,4.360036e-001
7.675424e+002,4.327534e-001
7.694709e+002,4.292896e-001
7.713994e+002,4.258732e-001
7.733279e+002,4.224030e-001
7.752564e+002,4.193521e-001
7.771849e+002,4.163586e-001
7.791134e+002,4.134968e-001
7.810419e+002,4.100238e-001
7.829704e+002,4.062817e-001
7.848989e+002,4.024355e-001
7.868274e+002,3.993454e-001
7.887559e+002,3.964689e-001
7.906844e+002,3.943310e-001
7.926129e+002,3.923843e-001
7.945414e+002,3.904927e-001
7.964699e+002,3.881673e-001
7.983984e+002,3.856917e-001
8.003269e+002,3.830746e-001
8.022554e+002,3.810019e-001
8.041839e+002,3.790332e-001
8.061124e+002,3.770630e-001
8.080409e+002,3.748948e-001
8.099694e+002,3.727221e-001
8.118979e+002,3.703880e-001
8.138264e+002,3.690701e-001
8.157549e+002,3.682751e-001
8.176833e+002,3.679885e-001
8.196119e+002,3.674577e-001
8.215403e+002,3.671060e-001
8.234689e+002,3.667846e-001
8.253973e+002,3.674374e-001
8.273259e+002,3.688394e-001
8.292543e+002,3.713318e-001
8.311829e+002,3.739348e-001
8.331113e+002,3.766554e-001
8.350399e+002,3.791838e-001
8.369683e+002,3.822145e-001
8.388969e+002,3.855505e-001
8.408253e+002,3.894668e-001
8.427538e+002,3.931229e-001
8.446824e+002,3.963394e-001
8.466108e+002,3.986981e-001
8.485394e+002,4.010398e-001
8.504678e+002,4.035954e-001
8.523964e+002,4.070057e-001
8.543248e+002,4.107173e-001
8.562534e+002,4.142591e-001
8.581818e+002,4.171340e-001
8.601104e+002,4.200360e-001
8.620388e+002,4.232071e-001
8.639673e+002,4.275816e-001
8.658958e+002,4.326836e-001
8.678243e+002,4.384691e-001
8.697528e+002,4.443688e-001
8.716813e+002,4.504218e-001
8.736098e+002,4.568245e-001
8.755383e+002,4.647293e-001
8.774668e+002,4.739648e-001
8.793953e+002,4.839805e-001
8.813238e+002,4.943599e-001
8.832523e+002,5.051461e-001
8.851808e+002,5.163964e-001
8.871093e+002,5.285225e-001
8.890378e+002,5.418979e-001
8.909663e+002,5.568056e-001
8.928948e+002,5.721927e-001
8.948233e+002,5.879070e-001
8.967518e+002,6.043087e-001
8.986803e+002,6.214177e-001
9.006088e+002,6.401353e-001
9.025373e+002,6.604545e-001
9.044658e+002,6.817645e-001
9.063943e+002,7.038537e-001
9.083228e+002,7.268442e-001
9.102513e+002,7.509716e-001
9.121798e+002,7.773752e-001
9.141083e+002,8.052223e-001
9.160368e+002,8.344171e-001
9.179653e+002,8.649749e-001
9.198938e+002,8.972750e-001
9.218223e+002,9.306552e-001
9.237508e+002,9.655073e-001
9.256793e+002,1.000604e+000
9.276078e+002,1.037497e+000
9.295363e+002,1.075501e+000
9.314648e+002,1.115431e+000
9.333932e+002,1.155014e+000
9.353218e+002,1.195660e+000
9.372502e+002,1.236751e+000
9.391788e+002,1.280059e+000
9.411072e+002,1.322456e+000
9.430358e+002,1.366398e+000
9.449643e+002,1.409596e+000
9.468928e+002,1.456823e+000
9.488213e+002,1.499160e+000
9.507498e+002,1.541550e+000
9.526783e+002,1.581620e+000
9.546068e+002,1.623906e+000
9.565353e+002,1.659517e+000
9.584637e+002,1.694543e+000
9.603923e+002,1.722553e+000
9.623207e+002,1.753459e+000
9.642493e+002,1.777960e+000
9.661777e+002,1.802565e+000
9.681063e+002,1.820463e+000
9.700347e+002,1.843906e+000
9.719633e+002,1.859089e+000
9.738917e+002,1.878563e+000
9.758203e+002,1.892452e+000
9.777487e+002,1.913891e+000
9.796772e+002,1.923407e+000
9.816057e+002,1.937128e+000
9.835342e+002,1.948042e+000
9.854627e+002,1.963068e+000
9.873912e+002,1.972340e+000
9.893197e+002,1.990208e+000
9.912482e+002,1.997986e+000
9.931768e+002,2.018207e+000
9.951052e+002,2.027516e+000
9.970338e+002,2.042817e+000
9.989622e+002,2.053384e+000
1.000891e+003,2.067469e+000
1.002819e+003,2.063676e+000
1.004748e+003,2.072104e+000
1.006676e+003,2.074895e+000
1.008605e+003,2.079186e+000
1.010533e+003,2.061754e+000
1.012462e+003,2.047230e+000
1.014390e+003,2.024344e+000
1.016319e+003,2.009845e+000
1.018247e+003,1.983905e+000
1.020176e+003,1.963895e+000
1.022104e+003,1.934578e+000
1.024033e+003,1.908675e+000
1.025961e+003,1.877876e+000
1.027890e+003,1.858292e+000
1.029818e+003,1.834113e+000
1.031747e+003,1.813009e+000
1.033675e+003,1.788026e+000
1.035604e+003,1.769899e+000
1.037532e+003,1.748436e+000
1.039461e+003,1.732518e+000
1.041389e+003,1.714042e+000
1.043318e+003,1.701032e+000
1.045246e+003,1.685771e+000
1.047175e+003,1.676235e+000
1.049103e+003,1.662471e+000
1.051032e+003,1.652209e+000
1.052960e+003,1.639907e+000
1.054889e+003,1.630317e+000
1.056817e+003,1.613577e+000
1.058746e+003,1.600057e+000
1.060674e+003,1.582235e+000
1.062603e+003,1.562392e+000
1.064531e+003,1.537216e+000
1.066460e+003,1.515401e+000
1.068388e+003,1.490177e+000
1.070317e+003,1.469629e+000
1.072245e+003,1.446874e+000
1.074174e+003,1.426276e+000
1.076102e+003,1.405884e+000
1.078031e+003,1.389449e+000
1.079959e+003,1.372462e+000
1.081888e+003,1.359380e+000
1.083816e+003,1.346184e+000
1.085745e+003,1.335187e+000
1.087673e+003,1.324374e+000
1.089602e+003,1.316625e+000
1.091530e+003,1.306774e+000
1.093459e+003,1.298749e+000
1.095387e+003,1.289075e+000
1.097316e+003,1.281035e+000
1.099244e+003,1.272271e+000
1.101173e+003,1.265373e+000
1.103101e+003,1.256416e+000
1.105030e+003,1.248152e+000
1.106958e+003,1.238386e+000
1.108887e+003,1.229807e+000
1.110815e+003,1.219747e+000
1.112744e+003,1.210291e+000
1.114672e+003,1.198846e+000
1.116601e+003,1.188431e+000
1.118529e+003,1.176642e+000
1.120458e+003,1.165103e+000
1.122386e+003,1.152342e+000
1.124315e+003,1.140126e+000
1.126243e+003,1.126826e+000
1.128172e+003,1.115014e+000
1.130100e+003,1.101866e+000
1.132029e+003,1.088965e+000
1.133957e+003,1.075660e+000
1.135886e+003,1.063331e+000
1.137814e+003,1.050606e+000
1.139743e+003,1.039102e+000
1.141671e+003,1.027427e+000
1.143600e+003,1.016562e+000
1.145528e+003,1.004622e+000
1.147457e+003,9.936218e-001
1.149385e+003,9.825490e-001
1.151314e+003,9.730559e-001
1.153242e+003,9.632010e-001
1.155171e+003,9.539939e-001
1.157099e+003,9.444471e-001
1.159028e+003,9.356596e-001
1.160956e+003,9.271182e-001
1.162885e+003,9.193079e-001
1.164813e+003,9.112096e-001
1.166742e+003,9.038846e-001
1.168670e+003,8.963541e-001
1.170599e+003,8.893854e-001
1.172527e+003,8.821831e-001
1.174456e+003,8.752794e-001
1.176384e+003,8.683615e-001
1.178313e+003,8.624235e-001
1.180241e+003,8.564121e-001
1.182170e+003,8.503605e-001
1.184098e+003,8.441783e-001
1.186027e+003,8.385940e-001
1.187955e+003,8.327971e-001
1.189884e+003,8.279932e-001
1.191812e+003,8.231086e-001
1.193741e+003,8.184162e-001
1.195669e+003,8.132240e-001
1.197598e+003,8.084520e-001
1.199526e+003,8.036442e-001
1.201455e+003,7.990361e-001
1.203383e+003,7.945173e-001
1.205312e+003,7.905579e-001
1.207240e+003,7.864734e-001
1.209169e+003,7.823603e-001
1.211097e+003,7.779681e-001
1.213026e+003,7.739825e-001
1.214954e+003,7.697921e-001
1.216883e+003,7.663345e-001
1.218811e+003,7.626150e-001
1.220740e+003,7.592372e-001
1.222668e+003,7.557378e-001
1.224597e+003,7.523225e-001
1.226525e+003,7.485477e-001
1.228453e+003,7.453933e-001
1.230382e+003,7.424457e-001
1.232311e+003,7.395360e-001
1.234239e+003,7.361654e-001
1.236167e+003,7.329301e-001
1.238096e+003,7.295607e-001
1.240025e+003,7.267103e-001
1.241953e+003,7.239614e-001
1.243882e+003,7.214499e-001
1.245810e+003,7.186201e-001
1.247739e+003,7.157668e-001
1.249667e+003,7.127573e-001
1.251596e+003,7.099526e-001
1.253524e+003,7.071662e-001
1.255453e+003,7.046782e-001
1.257381e+003,7.020795e-001
1.259310e+003,6.997282e-001
1.261238e+003,6.969708e-001
1.263167e+003,6.941783e-001
1.265095e+003,6.914831e-001
1.267024e+003,6.893281e-001
1.268952e+003,6.870940e-001
1.270880e+003,6.848321e-001
1.272809e+003,6.820644e-001
1.274738e+003,6.793590e-001
1.276666e+003,6.769609e-001
1.278594e+003,6.749506e-001
1.280523e+003,6.728092e-001
1.282452e+003,6.707134e-001
1.284380e+003,6.684602e-001
1.286308e+003,6.662709e-001
1.288237e+003,6.637746e-001
1.290166e+003,6.615304e-001
1.292094e+003,6.593425e-001
1.294022e+003,6.576124e-001
1.295951e+003,6.555859e-001
1.297880e+003,6.533068e-001
1.299808e+003,6.510580e-001
1.301736e+003,6.491085e-001
1.303665e+003,6.472387e-001
1.305594e+003,6.455045e-001
1.307522e+003,6.435024e-001
1.309450e+003,6.415085e-001
1.311379e+003,6.394370e-001
1.313307e+003,6.376326e-001
1.315236e+003,6.357279e-001
1.317164e+003,6.342831e-001
1.319093e+003,6.324626e-001
1.321021e+003,6.302241e-001
1.322950e+003,6.281027e-001
1.324878e+003,6.263633e-001
1.326807e+003,6.244969e-001
1.328735e+003,6.228186e-001
1.330664e+003,6.211115e-001
1.332592e+003,6.194892e-001
1.334521e+003,6.177551e-001
1.336449e+003,6.164811e-001
1.338378e+003,6.154988e-001
1.340307e+003,6.140215e-001
1.342235e+003,6.118188e-001
1.344163e+003,6.102887e-001
1.346092e+003,6.088886e-001
1.348021e+003,6.076941e-001
1.349949e+003,6.064357e-001
1.351877e+003,6.054750e-001
1.353806e+003,6.048465e-001
1.355734e+003,6.040791e-001
1.357663e+003,6.028683e-001
1.359591e+003,6.022297e-001
1.361520e+003,6.018891e-001
1.363448e+003,6.010169e-001
1.365377e+003,5.991446e-001
1.367305e+003,5.982502e-001
1.369234e+003,5.970955e-001
1.371162e+003,5.956010e-001
1.373091e+003,5.944510e-001
1.375019e+003,5.931032e-001
1.376948e+003,5.908082e-001
1.378876e+003,5.890188e-001
1.380805e+003,5.868347e-001
1.382733e+003,5.846118e-001
1.384662e+003,5.825670e-001
1.386590e+003,5.809903e-001
1.388519e+003,5.784610e-001
1.390447e+003,5.761824e-001
1.392376e+003,5.745391e-001
1.394304e+003,5.735269e-001
1.396233e+003,5.712053e-001
1.398161e+003,5.688033e-001
1.400090e+003,5.661066e-001
1.402018e+003,5.638404e-001
1.403947e+003,5.623583e-001
1.405875e+003,5.603331e-001
1.407804e+003,5.578418e-001
1.409732e+003,5.558510e-001
1.411661e+003,5.538793e-001
1.413589e+003,5.520912e-001
1.415518e+003,5.509618e-001
1.417446e+003,5.505803e-001
1.419375e+003,5.485838e-001
1.421303e+003,5.457721e-001
1.423232e+003,5.438846e-001
1.425160e+003,5.417470e-001
1.427089e+003,5.399148e-001
1.429017e+003,5.389385e-001
1.430946e+003,5.372490e-001
1.432874e+003,5.352203e-001
1.434803e+003,5.336326e-001
1.436731e+003,5.321398e-001
1.438660e+003,5.296388e-001
1.440588e+003,5.279024e-001
1.442517e+003,5.263237e-001
1.444445e+003,5.247290e-001
1.446374e+003,5.232401e-001
1.448302e+003,5.215418e-001
1.450231e+003,5.193917e-001
1.452159e+003,5.181146e-001
1.454088e+003,5.176092e-001
1.456016e+003,5.183480e-001
1.457945e+003,5.165600e-001
1.459873e+003,5.121821e-001
1.461802e+003,5.095240e-001
1.463730e+003,5.085662e-001
1.465659e+003,5.072719e-001
1.467587e+003,5.051504e-001
1.469516e+003,5.038724e-001
1.471444e+003,5.039321e-001
1.473373e+003,5.025040e-001
1.475301e+003,4.997060e-001
1.477230e+003,4.973669e-001
1.479158e+003,4.957380e-001
1.481087e+003,4.944656e-001
1.483015e+003,4.926582e-001
1.484944e+003,4.911838e-001
1.486872e+003,4.907643e-001
1.488801e+003,4.908925e-001
1.490729e+003,4.890525e-001
1.492658e+003,4.863901e-001
1.494586e+003,4.853612e-001
1.496515e+003,4.849431e-001
1.498443e+003,4.830439e-001
1.500372e+003,4.807853e-001
1.502300e+003,4.793910e-001
1.504229e+003,4.789530e-001
1.506157e+003,4.809978e-001
1.508086e+003,4.798102e-001
1.510014e+003,4.759867e-001
1.511943e+003,4.733557e-001
1.513871e+003,4.720173e-001
1.515800e+003,4.720305e-001
1.517728e+003,4.715007e-001
1.519657e+003,4.704383e-001
1.521585e+003,4.705464e-001
1.523514e+003,4.676060e-001
1.525442e+003,4.657803e-001
1.527371e+003,4.639369e-001
1.529299e+003,4.620202e-001
1.531228e+003,4.610742e-001
1.533156e+003,4.608063e-001
1.535085e+003,4.583724e-001
1.537013e+003,4.568335e-001
1.538942e+003,4.576531e-001
1.540870e+003,4.591795e-001
1.542799e+003,4.565602e-001
1.544727e+003,4.533539e-001
1.546656e+003,4.499561e-001
1.548584e+003,4.483633e-001
1.550513e+003,4.472607e-001
1.552441e+003,4.460520e-001
1.554370e+003,4.461785e-001
1.556298e+003,4.458863e-001
1.558227e+003,4.469283e-001
1.560155e+003,4.432023e-001
1.562084e+003,4.400944e-001
1.564012e+003,4.387051e-001
1.565941e+003,4.378539e-001
1.567869e+003,4.373368e-001
1.569798e+003,4.374048e-001
1.571726e+003,4.353201e-001
1.573655e+003,4.342944e-001
1.575583e+003,4.347927e-001
1.577512e+003,4.344110e-001
1.579440e+003,4.327350e-001
1.581369e+003,4.322463e-001
1.583297e+003,4.320258e-001
1.585226e+003,4.320048e-001
1.587154e+003,4.320822e-001
1.589083e+003,4.329218e-001
1.591011e+003,4.340701e-001
1.592940e+003,4.357587e-001
1.594868e+003,4.375319e-001
1.596797e+003,4.393246e-001
1.598725e+003,4.410781e-001
1.600654e+003,4.441138e-001
1.602582e+003,4.480228e-001
1.604511e+003,4.525386e-001
1.606439e+003,4.571123e-001
1.608368e+003,4.633289e-001
1.610296e+003,4.693623e-001
1.612225e+003,4.762149e-001
1.614153e+003,4.826439e-001
1.616082e+003,4.937752e-001
1.618010e+003,5.059779e-001
1.619939e+003,5.113980e-001
1.621867e+003,5.179520e-001
1.623796e+003,5.299050e-001
1.625724e+003,5.360091e-001
1.627653e+003,5.443163e-001
1.629581e+003,5.524101e-001
1.631510e+003,5.587121e-001
1.633438e+003,5.639597e-001
1.635367e+003,5.750457e-001
1.637295e+003,5.838199e-001
1.639224e+003,5.859215e-001
1.641152e+003,5.883726e-001
1.643081e+003,5.916120e-001
1.645009e+003,5.940313e-001
1.646938e+003,6.012782e-001
1.648866e+003,6.005892e-001
1.650795e+003,5.992738e-001
1.652723e+003,6.011407e-001
1.654652e+003,6.018147e-001
1.656580e+003,5.964242e-001
1.658509e+003,5.929835e-001
1.660437e+003,5.899493e-001
1.662366e+003,5.873041e-001
1.664294e+003,5.818210e-001
1.666223e+003,5.772856e-001
1.668151e+003,5.736066e-001
1.670080e+003,5.680113e-001
1.672008e+003,5.604129e-001
1.673937e+003,5.544434e-001
1.675865e+003,5.460643e-001
1.677794e+003,5.389980e-001
1.679722e+003,5.325638e-001
1.681651e+003,5.264198e-001
1.683579e+003,5.205790e-001
1.685508e+003,5.086550e-001
1.687436e+003,5.013433e-001
1.689365e+003,4.932447e-001
1.691293e+003,4.843853e-001
1.693222e+003,4.782665e-001
1.695150e+003,4.727445e-001
1.697079e+003,4.650500e-001
1.699007e+003,4.591189e-001
1.700936e+003,4.484848e-001
1.702864e+003,4.418593e-001
1.704793e+003,4.360972e-001
1.706721e+003,4.277623e-001
1.708650e+003,4.206605e-001
1.710578e+003,4.146035e-001
1.712507e+003,4.094110e-001
1.714435e+003,4.059066e-001
1.716364e+003,4.016213e-001
1.718292e+003,3.936580e-001
1.720221e+003,3.863491e-001
1.722149e+003,3.817465e-001
1.724078e+003,3.765505e-001
1.726006e+003,3.719906e-001
1.727935e+003,3.681006e-001
1.729863e+003,3.645472e-001
1.731792e+003,3.613534e-001
1.733720e+003,3.583182e-001
1.735649e+003,3.520558e-001
1.737577e+003,3.488812e-001
1.739506e+003,3.453423e-001
1.741434e+003,3.416820e-001
1.743363e+003,3.382037e-001
1.745291e+003,3.350357e-001
1.747220e+003,3.324627e-001
1.749148e+003,3.300264e-001
1.751077e+003,3.258335e-001
1.753005e+003,3.219879e-001
1.754934e+003,3.189851e-001
1.756862e+003,3.164777e-001
1.758791e+003,3.133561e-001
1.760719e+003,3.114429e-001
1.762648e+003,3.085314e-001
1.764576e+003,3.058835e-001
1.766505e+003,3.036335e-001
1.768433e+003,3.017291e-001
1.770362e+003,3.000711e-001
1.772290e+003,2.987981e-001
1.774219e+003,2.953838e-001
1.776147e+003,2.928476e-001
1.778076e+003,2.904617e-001
1.780004e+003,2.886471e-001
1.781933e+003,2.859361e-001
1.783861e+003,2.839575e-001
1.785790e+003,2.818496e-001
1.787718e+003,2.801799e-001
1.789647e+003,2.789536e-001
1.791575e+003,2.781420e-001
1.793504e+003,2.754730e-001
1.795432e+003,2.733218e-001
1.797361e+003,2.712390e-001
1.799289e+003,2.699850e-001
1.801218e+003,2.682035e-001
1.803146e+003,2.660330e-001
1.805075e+003,2.638923e-001
1.807003e+003,2.622937e-001
1.808932e+003,2.607598e-001
1.810860e+003,2.596662e-001
1.812789e+003,2.577248e-001
1.814717e+003,2.560240e-001
1.816646e+003,2.542872e-001
1.818574e+003,2.527027e-001
1.820503e+003,2.510467e-001
1.822431e+003,2.501411e-001
1.824360e+003,2.491324e-001
1.826288e+003,2.478912e-001
1.828217e+003,2.467929e-001
1.830145e+003,2.456739e-001
1.832074e+003,2.431744e-001
1.834002e+003,2.417798e-001
1.835931e+003,2.405869e-001
1.837859e+003,2.395938e-001
1.839788e+003,2.381599e-001
1.841716e+003,2.374850e-001
1.843645e+003,2.368146e-001
1.845573e+003,2.357208e-001
1.847502e+003,2.339945e-001
1.849430e+003,2.327212e-001
1.851359e+003,2.314105e-001
1.853287e+003,2.304596e-001
1.855216e+003,2.292303e-001
1.857144e+003,2.284413e-001
1.859073e+003,2.276082e-001
1.861001e+003,2.270614e-001
1.862930e+003,2.261279e-001
1.864858e+003,2.256110e-001
1.866786e+003,2.253177e-001
1.868715e+003,2.250336e-001
1.870644e+003,2.232386e-001
1.872572e+003,2.220640e-001
1.874500e+003,2.211269e-001
1.876429e+003,2.204489e-001
1.878358e+003,2.194643e-001
1.880286e+003,2.186852e-001
1.882215e+003,2.179025e-001
1.884143e+003,2.176245e-001
1.886072e+003,2.170213e-001
1.888000e+003,2.167862e-001
1.889929e+003,2.160750e-001
1.891857e+003,2.150629e-001
1.893786e+003,2.143683e-001
1.895714e+003,2.140892e-001
1.897643e+003,2.133280e-001
1.899571e+003,2.129107e-001
1.901500e+003,2.122428e-001
1.903428e+003,2.117649e-001
1.905357e+003,2.111166e-001
1.907285e+003,2.110327e-001
1.909214e+003,2.108879e-001
1.911142e+003,2.105076e-001
1.913071e+003,2.096938e-001
1.914999e+003,2.092835e-001
1.916927e+003,2.089699e-001
1.918856e+003,2.088812e-001
1.920785e+003,2.084771e-001
1.922713e+003,2.088296e-001
1.924641e+003,2.082309e-001
1.926570e+003,2.076849e-001
1.928499e+003,2.071117e-001
1.930427e+003,2.069301e-001
1.932355e+003,2.068314e-001
1.934284e+003,2.071116e-001
1.936213e+003,2.070325e-001
1.938141e+003,2.070294e-001
1.940069e+003,2.067612e-001
1.941998e+003,2.070696e-001
1.943927e+003,2.069131e-001
1.945855e+003,2.069915e-001
1.947783e+003,2.069332e-001
1.949712e+003,2.069266e-001
1.951641e+003,2.065810e-001
1.953569e+003,2.064744e-001
1.955497e+003,2.064210e-001
1.957426e+003,2.067837e-001
1.959354e+003,2.070885e-001
1.961283e+003,2.074484e-001
1.963211e+003,2.073511e-001
1.965140e+003,2.075744e-001
1.967068e+003,2.076366e-001
1.968997e+003,2.077259e-001
1.970925e+003,2.079298e-001
1.972854e+003,2.085440e-001
1.974782e+003,2.086670e-001
1.976711e+003,2.086703e-001
1.978639e+003,2.085517e-001
1.980568e+003,2.088913e-001
1.982496e+003,2.093095e-001
1.984425e+003,2.100437e-001
1.986354e+003,2.104683e-001
1.988282e+003,2.108089e-001
1.990210e+003,2.107931e-001
1.992139e+003,2.113089e-001
1.994068e+003,2.114699e-001
1.995996e+003,2.120239e-001
1.997924e+003,2.126472e-001
1.999853e+003,2.131895e-001
2.001781e+003,2.132780e-001
2.003710e+003,2.135069e-001
2.005638e+003,2.138123e-001
2.007567e+003,2.146193e-001
2.009495e+003,2.153035e-001
2.011424e+003,2.160372e-001
2.013352e+003,2.163138e-001
2.015281e+003,2.167312e-001
2.017209e+003,2.171413e-001
2.019138e+003,2.178438e-001
2.021066e+003,2.185381e-001
2.022995e+003,2.194397e-001
2.024923e+003,2.198480e-001
2.026852e+003,2.202081e-001
2.028780e+003,2.204741e-001
2.030709e+003,2.212106e-001
2.032637e+003,2.220071e-001
2.034566e+003,2.230463e-001
2.036494e+003,2.237489e-001
2.038423e+003,2.243819e-001
2.040351e+003,2.247808e-001
2.042280e+003,2.254499e-001
2.044208e+003,2.260185e-001
2.046137e+003,2.269832e-001
2.048065e+003,2.278380e-001
2.049994e+003,2.286381e-001
2.051922e+003,2.291550e-001
2.053851e+003,2.298431e-001
2.055779e+003,2.305407e-001
2.057708e+003,2.316777e-001
2.059636e+003,2.326475e-001
2.061565e+003,2.336005e-001
2.063493e+003,2.342781e-001
2.065422e+003,2.351167e-001
2.067350e+003,2.356896e-001
2.069279e+003,2.366681e-001
2.071207e+003,2.377331e-001
2.073136e+003,2.388132e-001
2.075064e+003,2.395754e-001
2.076993e+003,2.403649e-001
2.078921e+003,2.410054e-001
2.080850e+003,2.419341e-001
2.082778e+003,2.428339e-001
2.084707e+003,2.440355e-001
2.086635e+003,2.449967e-001
2.088564e+003,2.459531e-001
2.090492e+003,2.466313e-001
2.092421e+003,2.475004e-001
2.094349e+003,2.484377e-001
2.096278e+003,2.495880e-001
2.098206e+003,2.505245e-001
2.100135e+003,2.514892e-001
2.102063e+003,2.522382e-001
2.103992e+003,2.531371e-001
2.105920e+003,2.539388e-001
2.107849e+003,2.549876e-001
2.109777e+003,2.559401e-001
2.111706e+003,2.570834e-001
2.113634e+003,2.579922e-001
2.115563e+003,2.588535e-001
2.117491e+003,2.596155e-001
2.119420e+003,2.606806e-001
2.121348e+003,2.616508e-001
2.123277e+003,2.627221e-001
2.125205e+003,2.636427e-001
2.127134e+003,2.645752e-001
2.129062e+003,2.654324e-001
2.130991e+003,2.665674e-001
2.132919e+003,2.675587e-001
2.134848e+003,2.686884e-001
2.136776e+003,2.695840e-001
2.138705e+003,2.705239e-001
2.140633e+003,2.713454e-001
2.142562e+003,2.723926e-001
2.144490e+003,2.733830e-001
2.146419e+003,2.744335e-001
2.148347e+003,2.753682e-001
2.150276e+003,2.764668e-001
2.152204e+003,2.773723e-001
2.154133e+003,2.783730e-001
2.156061e+003,2.792782e-001
2.157990e+003,2.804156e-001
2.159918e+003,2.813711e-001
2.161847e+003,2.823961e-001
2.163775e+003,2.832812e-001
2.165704e+003,2.842950e-001
2.167632e+003,2.852240e-001
2.169561e+003,2.863712e-001
2.171489e+003,2.872709e-001
2.173418e+003,2.882565e-001
2.175346e+003,2.891507e-001
2.177275e+003,2.901970e-001
2.179203e+003,2.911383e-001
2.181132e+003,2.921656e-001
2.183060e+003,2.931056e-001
2.184989e+003,2.941588e-001
2.186917e+003,2.950801e-001
2.188846e+003,2.961374e-001
2.190774e+003,2.970383e-001
2.192703e+003,2.980965e-001
2.194631e+003,2.989993e-001
2.196560e+003,3.000806e-001
2.198488e+003,3.010571e-001
2.200417e+003,3.021039e-001
2.202345e+003,3.030127e-001
2.204274e+003,3.040303e-001
2.206202e+003,3.049667e-001
2.208131e+003,3.059759e-001
2.210059e+003,3.068639e-001
2.211988e+003,3.079176e-001
2.213916e+003,3.088617e-001
2.215845e+003,3.099373e-001
2.217773e+003,3.108435e-001
2.219702e+003,3.118280e-001
2.221630e+003,3.127532e-001
2.223559e+003,3.137955e-001
2.225487e+003,3.146953e-001
2.227416e+003,3.157362e-001
2.229344e+003,3.166589e-001
2.231273e+003,3.176348e-001
2.233201e+003,3.185396e-001
2.235130e+003,3.194919e-001
2.237058e+003,3.204410e-001
2.238987e+003,3.215005e-001
2.240915e+003,3.223710e-001
2.242844e+003,3.233627e-001
2.244772e+003,3.242485e-001
2.246701e+003,3.252743e-001
2.248629e+003,3.261764e-001
2.250558e+003,3.272001e-001
2.252486e+003,3.281115e-001
2.254415e+003,3.291888e-001
2.256343e+003,3.301659e-001
2.258272e+003,3.312068e-001
2.260200e+003,3.321120e-001
2.262129e+003,3.330963e-001
2.264057e+003,3.340197e-001
2.265986e+003,3.349922e-001
2.267914e+003,3.358403e-001
2.269843e+003,3.368184e-001
2.271771e+003,3.377058e-001
2.273700e+003,3.386756e-001
2.275628e+003,3.394677e-001
2.277557e+003,3.403923e-001
2.279485e+003,3.412827e-001
2.281414e+003,3.422165e-001
2.283342e+003,3.429748e-001
2.285271e+003,3.439966e-001
2.287199e+003,3.450026e-001
2.289128e+003,3.461538e-001
2.291056e+003,3.472980e-001
2.292985e+003,3.485583e-001
2.294913e+003,3.497190e-001
2.296842e+003,3.510537e-001
2.298770e+003,3.521594e-001
2.300699e+003,3.534137e-001
2.302627e+003,3.544591e-001
2.304556e+003,3.557074e-001
2.306484e+003,3.571012e-001
2.308413e+003,3.587036e-001
2.310341e+003,3.601223e-001
2.312270e+003,3.614158e-001
2.314198e+003,3.624281e-001
2.316127e+003,3.638456e-001
2.318055e+003,3.654088e-001
2.319984e+003,3.673380e-001
2.321912e+003,3.686968e-001
2.323841e+003,3.704453e-001
2.325769e+003,3.720692e-001
2.327698e+003,3.736929e-001
2.329626e+003,3.749591e-001
2.331555e+003,3.766252e-001
2.333483e+003,3.774035e-001
2.335412e+003,3.786015e-001
2.337340e+003,3.798513e-001
2.339269e+003,3.810637e-001
2.341197e+003,3.818251e-001
2.343126e+003,3.826964e-001
2.345054e+003,3.825507e-001
2.346983e+003,3.816923e-001
2.348911e+003,3.814802e-001
2.350840e+003,3.835145e-001
2.352768e+003,3.861765e-001
2.354697e+003,3.888268e-001
2.356625e+003,3.909334e-001
2.358554e+003,3.931969e-001
2.360482e+003,3.941827e-001
2.362411e+003,3.954338e-001
2.364339e+003,3.959547e-001
2.366268e+003,3.958357e-001
2.368196e+003,3.944348e-001
2.370125e+003,3.933551e-001
2.372053e+003,3.922601e-001
2.373982e+003,3.916125e-001
2.375910e+003,3.906932e-001
2.377839e+003,3.900929e-001
2.379767e+003,3.894947e-001
2.381696e+003,3.891755e-001
2.383624e+003,3.889151e-001
2.385553e+003,3.891497e-001
2.387481e+003,3.895351e-001
2.389410e+003,3.901276e-001
2.391338e+003,3.908070e-001
2.393267e+003,3.916730e-001
2.395195e+003,3.924384e-001
2.397124e+003,3.932428e-001
2.399052e+003,3.940372e-001
2.400981e+003,3.949488e-001
2.402909e+003,3.957141e-001
2.404838e+003,3.964492e-001
2.406766e+003,3.971057e-001
2.408695e+003,3.979863e-001
2.410623e+003,3.988644e-001
2.412552e+003,3.998097e-001
2.414480e+003,4.004917e-001
2.416409e+003,4.011863e-001
2.418337e+003,4.017913e-001
2.420266e+003,4.026126e-001
2.422194e+003,4.034127e-001
2.424123e+003,4.042357e-001
2.426051e+003,4.049762e-001
2.427980e+003,4.057491e-001
2.429908e+003,4.063967e-001
2.431837e+003,4.071858e-001
2.433765e+003,4.079108e-001
2.435694e+003,4.086450e-001
2.437622e+003,4.092970e-001
2.439551e+003,4.100417e-001
2.441479e+003,4.106697e-001
2.443408e+003,4.114370e-001
2.445336e+003,4.121721e-001
2.447265e+003,4.129412e-001
2.449193e+003,4.136274e-001
2.451122e+003,4.143753e-001
2.453050e+003,4.150030e-001
2.454979e+003,4.156947e-001
2.456907e+003,4.163123e-001
2.458836e+003,4.170117e-001
2.460764e+003,4.176491e-001
2.462693e+003,4.184690e-001
2.464621e+003,4.191667e-001
2.466550e+003,4.199038e-001
2.468478e+003,4.204774e-001
2.470406e+003,4.210810e-001
2.472335e+003,4.217364e-001
2.474264e+003,4.224716e-001
2.476192e+003,4.230665e-001
2.478121e+003,4.237345e-001
2.480049e+003,4.244173e-001
2.481978e+003,4.251073e-001
2.483906e+003,4.256506e-001
2.485834e+003,4.263476e-001
2.487763e+003,4.269988e-001
2.489692e+003,4.276068e-001
2.491620e+003,4.280946e-001
2.493549e+003,4.287510e-001
2.495477e+003,4.293485e-001
2.497406e+003,4.300159e-001
2.499334e+003,4.305022e-001
2.501262e+003,4.310330e-001
2.503191e+003,4.316837e-001
2.505120e+003,4.323689e-001
2.507048e+003,4.328463e-001
2.508977e+003,4.334057e-001
2.510905e+003,4.338635e-001
2.512833e+003,4.344849e-001
2.514762e+003,4.350539e-001
2.516690e+003,4.355884e-001
2.518619e+003,4.361519e-001
2.520548e+003,4.368316e-001
2.522476e+003,4.372572e-001
2.524405e+003,4.377688e-001
2.526333e+003,4.382061e-001
2.528261e+003,4.387451e-001
2.530190e+003,4.393884e-001
2.532119e+003,4.400590e-001
2.534047e+003,4.404348e-001
2.535976e+003,4.407932e-001
2.537904e+003,4.411914e-001
2.539833e+003,4.417834e-001
2.541761e+003,4.423766e-001
2.543689e+003,4.429219e-001
2.545618e+003,4.432853e-001
2.547547e+003,4.437871e-001
2.549475e+003,4.441923e-001
2.551404e+003,4.446108e-001
2.553332e+003,4.450834e-001
2.555260e+003,4.457355e-001
2.557189e+003,4.462343e-001
2.559117e+003,4.466311e-001
2.561046e+003,4.469758e-001
2.562975e+003,4.473575e-001
2.564903e+003,4.478066e-001
2.566832e+003,4.484723e-001
2.568760e+003,4.488983e-001
2.570688e+003,4.493591e-001
2.572617e+003,4.498053e-001
2.574545e+003,4.501104e-001
2.576474e+003,4.502957e-001
2.578403e+003,4.507187e-001
2.580331e+003,4.512165e-001
2.582260e+003,4.517386e-001
2.584188e+003,4.520727e-001
2.586116e+003,4.523569e-001
2.588045e+003,4.525956e-001
2.589973e+003,4.530292e-001
2.591902e+003,4.534442e-001
2.593831e+003,4.538906e-001
2.595759e+003,4.542556e-001
2.597688e+003,4.545857e-001
2.599616e+003,4.548346e-001
2.601544e+003,4.551060e-001
2.603473e+003,4.554227e-001
2.605401e+003,4.558927e-001
2.607330e+003,4.562508e-001
2.609259e+003,4.566059e-001
2.611187e+003,4.568222e-001
2.613115e+003,4.570833e-001
2.615044e+003,4.573393e-001
2.616972e+003,4.577195e-001
2.618901e+003,4.580230e-001
2.620830e+003,4.584086e-001
2.622758e+003,4.586720e-001
2.624687e+003,4.590431e-001
2.626615e+003,4.592098e-001
2.628543e+003,4.594226e-001
2.630472e+003,4.596865e-001
2.632400e+003,4.600953e-001
2.634329e+003,4.603094e-001
2.636258e+003,4.605229e-001
2.638186e+003,4.607306e-001
2.640115e+003,4.608765e-001
2.642043e+003,4.610231e-001
2.643971e+003,4.613592e-001
2.645900e+003,4.615991e-001
2.647828e+003,4.618470e-001
2.649757e+003,4.618397e-001
2.651686e+003,4.619605e-001
2.653614e+003,4.621339e-001
2.655542e+003,4.624015e-001
2.657471e+003,4.626224e-001
2.659399e+003,4.628274e-001
2.661328e+003,4.628526e-001
2.663256e+003,4.629874e-001
2.665185e+003,4.631566e-001
2.667114e+003,4.633481e-001
2.669042e+003,4.634864e-001
2.670970e+003,4.638248e-001
2.672899e+003,4.640057e-001
2.674827e+003,4.640639e-001
2.676756e+003,4.639464e-001
2.678684e+003,4.640871e-001
2.680613e+003,4.642777e-001
2.682542e+003,4.643683e-001
2.684470e+003,4.644289e-001
2.686398e+003,4.645082e-001
2.688327e+003,4.644997e-001
2.690255e+003,4.645329e-001
2.692184e+003,4.644676e-001
2.694112e+003,4.646028e-001
2.696041e+003,4.648221e-001
2.697969e+003,4.650205e-001
2.699898e+003,4.649314e-001
2.701826e+003,4.648717e-001
2.703755e+003,4.648217e-001
2.705683e+003,4.648443e-001
2.707612e+003,4.649184e-001
2.709540e+003,4.651153e-001
2.711469e+003,4.651136e-001
2.713397e+003,4.651284e-001
2.715326e+003,4.650214e-001
2.717254e+003,4.649931e-001
2.719183e+003,4.649451e-001
2.721111e+003,4.650591e-001
2.723040e+003,4.652115e-001
2.724969e+003,4.652615e-001
2.726897e+003,4.649482e-001
2.728825e+003,4.647304e-001
2.730754e+003,4.646922e-001
2.732682e+003,4.648280e-001
2.734611e+003,4.649172e-001
2.736539e+003,4.649541e-001
2.738468e+003,4.647110e-001
2.740396e+003,4.644095e-001
2.742325e+003,4.642398e-001
2.744253e+003,4.642421e-001
2.746182e+003,4.643633e-001
2.748110e+003,4.644423e-001
2.750039e+003,4.641405e-001
2.751967e+003,4.638181e-001
2.753896e+003,4.637445e-001
2.755824e+003,4.637977e-001
2.757753e+003,4.636680e-001
2.759681e+003,4.636627e-001
2.761610e+003,4.635407e-001
2.763538e+003,4.633195e-001
2.765467e+003,4.629646e-001
2.767395e+003,4.628485e-001
2.769324e+003,4.627820e-001
2.771252e+003,4.628366e-001
2.773181e+003,4.628415e-001
2.775109e+003,4.626721e-001
2.777038e+003,4.622666e-001
2.778966e+003,4.620221e-001
2.780895e+003,4.618348e-001
2.782823e+003,4.617581e-001
2.784752e+003,4.615595e-001
2.786680e+003,4.615740e-001
2.788609e+003,4.615262e-001
2.790537e+003,4.611532e-001
2.792466e+003,4.607148e-001
2.794394e+003,4.606918e-001
2.796323e+003,4.606074e-001
2.798251e+003,4.604271e-001
2.800180e+003,4.601375e-001
2.802108e+003,4.598975e-001
2.804037e+003,4.595399e-001
2.805965e+003,4.593180e-001
2.807894e+003,4.592184e-001
2.809822e+003,4.591657e-001
2.811751e+003,4.588021e-001
2.813679e+003,4.585612e-001
2.815608e+003,4.583128e-001
2.817536e+003,4.581187e-001
2.819465e+003,4.578452e-001
2.821393e+003,4.577870e-001
2.823322e+003,4.576667e-001
2.825250e+003,4.573652e-001
2.827179e+003,4.569992e-001
2.829107e+003,4.568529e-001
2.831036e+003,4.565787e-001
2.832964e+003,4.563815e-001
2.834893e+003,4.562367e-001
2.836821e+003,4.561690e-001
2.838750e+003,4.559217e-001
2.840678e+003,4.555575e-001
2.842607e+003,4.552742e-001
2.844535e+003,4.552325e-001
2.846464e+003,4.552212e-001
2.848392e+003,4.550769e-001
2.850321e+003,4.546199e-001
2.852249e+003,4.543750e-001
2.854178e+003,4.541723e-001
2.856106e+003,4.540225e-001
2.858035e+003,4.539481e-001
2.859963e+003,4.538013e-001
2.861892e+003,4.534603e-001
2.863820e+003,4.533105e-001
2.865749e+003,4.529936e-001
2.867677e+003,4.526630e-001
2.869606e+003,4.525723e-001
2.871534e+003,4.527017e-001
2.873463e+003,4.525103e-001
2.875391e+003,4.521760e-001
2.877320e+003,4.517661e-001
2.879248e+003,4.515376e-001
2.881177e+003,4.512713e-001
2.883105e+003,4.512012e-001
2.885034e+003,4.510524e-001
2.886962e+003,4.509327e-001
2.888891e+003,4.507512e-001
2.890819e+003,4.504314e-001
2.892748e+003,4.503095e-001
2.894676e+003,4.505424e-001
2.896605e+003,4.504443e-001
2.898533e+003,4.502935e-001
2.900462e+003,4.500538e-001
2.902390e+003,4.499450e-001
2.904319e+003,4.498411e-001
2.906247e+003,4.496694e-001
2.908176e+003,4.495169e-001
2.910104e+003,4.497248e-001
2.912033e+003,4.498605e-001
2.913961e+003,4.497732e-001
2.915890e+003,4.496587e-001
2.917818e+003,4.497254e-001
2.919747e+003,4.495640e-001
2.921675e+003,4.494821e-001
2.923604e+003,4.494228e-001
2.925532e+003,4.494961e-001
2.927461e+003,4.495246e-001
2.929389e+003,4.494869e-001
2.931318e+003,4.491116e-001
2.933246e+003,4.491929e-001
2.935175e+003,4.492067e-001
2.937103e+003,4.491368e-001
2.939032e+003,4.491146e-001
2.940960e+003,4.492601e-001
2.942889e+003,4.494480e-001
2.944817e+003,4.494562e-001
2.946746e+003,4.493454e-001
2.948674e+003,4.493927e-001
2.950603e+003,4.496318e-001
2.952531e+003,4.499787e-001
2.954460e+003,4.499153e-001
2.956388e+003,4.500226e-001
2.958317e+003,4.502044e-001
2.960245e+003,4.505501e-001
2.962174e+003,4.507720e-001
2.964102e+003,4.508880e-001
2.966031e+003,4.510614e-001
2.967959e+003,4.512761e-001
2.969888e+003,4.515602e-001
2.971816e+003,4.520847e-001
2.973745e+003,4.523995e-001
2.975673e+003,4.527003e-001
2.977602e+003,4.531327e-001
2.979530e+003,4.535866e-001
2.981459e+003,4.539550e-001
2.983387e+003,4.544795e-001
2.985316e+003,4.548572e-001
2.987244e+003,4.552004e-001
2.989173e+003,4.557278e-001
2.991101e+003,4.565976e-001
2.993030e+003,4.571389e-001
2.994958e+003,4.577242e-001
2.996887e+003,4.584529e-001
2.998815e+003,4.590425e-001
3.000744e+003,4.594850e-001
3.002672e+003,4.602113e-001
3.004601e+003,4.609264e-001
3.006529e+003,4.616555e-001
3.008458e+003,4.624055e-001
3.010386e+003,4.634458e-001
3.012315e+003,4.643737e-001
3.014243e+003,4.653748e-001
3.016172e+003,4.661309e-001
3.018100e+003,4.670523e-001
3.020029e+003,4.678955e-001
3.021957e+003,4.688004e-001
3.023886e+003,4.697084e-001
3.025814e+003,4.707630e-001
3.027743e+003,4.718840e-001
3.029671e+003,4.733551e-001
3.031600e+003,4.746798e-001
3.033528e+003,4.758229e-001
3.035457e+003,4.768070e-001
3.037385e+003,4.779700e-001
3.039314e+003,4.793834e-001
3.041242e+003,4.810157e-001
3.043171e+003,4.823587e-001
3.045099e+003,4.838362e-001
3.047028e+003,4.853058e-001
3.048956e+003,4.871510e-001
3.050885e+003,4.886476e-001
3.052813e+003,4.900122e-001
3.054742e+003,4.916394e-001
3.056670e+003,4.933387e-001
3.058599e+003,4.949015e-001
3.060527e+003,4.965188e-001
3.062456e+003,4.984333e-001
3.064384e+003,5.007845e-001
3.066313e+003,5.026879e-001
3.068241e+003,5.042354e-001
3.070170e+003,5.060474e-001
3.072098e+003,5.082951e-001
3.074027e+003,5.102783e-001
3.075955e+003,5.123848e-001
3.077884e+003,5.144678e-001
3.079812e+003,5.165585e-001
3.081741e+003,5.187390e-001
3.083669e+003,5.208799e-001
3.085598e+003,5.230366e-001
3.087526e+003,5.253550e-001
3.089455e+003,5.278625e-001
3.091383e+003,5.301652e-001
3.093312e+003,5.323697e-001
3.095240e+003,5.351582e-001
3.097169e+003,5.377972e-001
3.099097e+003,5.402223e-001
3.101026e+003,5.428231e-001
3.102954e+003,5.454946e-001
3.104883e+003,5.482414e-001
3.106811e+003,5.509633e-001
3.108740e+003,5.536342e-001
3.110668e+003,5.564905e-001
3.112597e+003,5.592364e-001
3.114525e+003,5.620316e-001
3.116454e+003,5.647508e-001
3.118382e+003,5.675876e-001
3.120311e+003,5.701687e-001
3.122239e+003,5.731524e-001
3.124167e+003,5.766062e-001
3.126096e+003,5.798400e-001
3.128025e+003,5.828518e-001
3.129953e+003,5.856365e-001
3.131882e+003,5.885416e-001
3.133810e+003,5.917703e-001
3.135739e+003,5.950105e-001
3.137667e+003,5.982308e-001
3.139595e+003,6.013625e-001
3.141524e+003,6.044964e-001
3.143453e+003,6.077048e-001
3.145381e+003,6.111352e-001
3.147310e+003,6.144113e-001
3.149238e+003,6.177304e-001
3.151167e+003,6.211845e-001
3.153095e+003,6.246018e-001
3.155023e+003,6.280222e-001
3.156952e+003,6.311131e-001
3.158881e+003,6.344451e-001
3.160809e+003,6.382770e-001
3.162738e+003,6.417884e-001
3.164666e+003,6.454265e-001
3.166594e+003,6.487992e-001
3.168523e+003,6.522067e-001
3.170452e+003,6.557836e-001
3.172380e+003,6.594846e-001
3.174309e+003,6.628526e-001
3.176237e+003,6.664138e-001
3.178166e+003,6.700816e-001
3.180094e+003,6.736442e-001
3.182022e+003,6.772431e-001
3.183951e+003,6.812446e-001
3.185880e+003,6.850144e-001
3.187808e+003,6.883292e-001
3.189737e+003,6.916087e-001
3.191665e+003,6.953577e-001
3.193594e+003,6.991351e-001
3.195522e+003,7.027753e-001
3.197450e+003,7.063963e-001
3.199379e+003,7.093787e-001
3.201308e+003,7.127427e-001
3.203236e+003,7.167384e-001
3.205165e+003,7.205029e-001
3.207093e+003,7.243214e-001
3.209021e+003,7.280053e-001
3.210950e+003,7.314023e-001
3.212878e+003,7.347092e-001
3.214807e+003,7.378829e-001
3.216736e+003,7.406471e-001
3.218664e+003,7.441685e-001
3.220593e+003,7.480328e-001
3.222521e+003,7.515586e-001
3.224449e+003,7.543271e-001
3.226378e+003,7.571232e-001
3.228306e+003,7.603390e-001
3.230235e+003,7.637958e-001
3.232164e+003,7.668066e-001
3.234092e+003,7.694421e-001
3.236021e+003,7.721890e-001
3.237949e+003,7.754315e-001
3.239877e+003,7.786251e-001
3.241806e+003,7.814552e-001
3.243734e+003,7.842263e-001
3.245663e+003,7.868791e-001
3.247592e+003,7.891302e-001
3.249520e+003,7.917315e-001
3.251448e+003,7.940251e-001
3.253377e+003,7.965613e-001
3.255305e+003,7.994309e-001
3.257234e+003,8.022453e-001
3.259162e+003,8.047851e-001
3.261091e+003,8.074234e-001
3.263020e+003,8.096833e-001
3.264948e+003,8.115407e-001
3.266876e+003,8.135000e-001
3.268805e+003,8.156808e-001
3.270733e+003,8.180738e-001
3.272662e+003,8.210567e-001
3.274591e+003,8.234843e-001
3.276519e+003,8.252583e-001
3.278448e+003,8.268538e-001
3.280376e+003,8.293079e-001
3.282304e+003,8.321769e-001
3.284233e+003,8.343959e-001
3.286161e+003,8.364406e-001
3.288090e+003,8.390071e-001
3.290019e+003,8.411672e-001
3.291947e+003,8.435105e-001
3.293875e+003,8.458277e-001
3.295804e+003,8.477162e-001
3.297732e+003,8.495471e-001
3.299661e+003,8.517444e-001
3.301589e+003,8.544815e-001
3.303518e+003,8.574262e-001
3.305447e+003,8.596718e-001
3.307375e+003,8.622007e-001
3.309303e+003,8.656066e-001
3.311232e+003,8.685109e-001
3.313160e+003,8.706999e-001
3.315089e+003,8.729957e-001
3.317017e+003,8.757959e-001
3.318946e+003,8.786312e-001
3.320875e+003,8.812051e-001
3.322803e+003,8.836668e-001
3.324731e+003,8.867816e-001
3.326660e+003,8.899630e-001
3.328588e+003,8.924036e-001
3.330517e+003,8.944579e-001
3.332445e+003,8.974577e-001
3.334374e+003,9.010059e-001
3.336302e+003,9.041621e-001
3.338231e+003,9.072083e-001
3.340159e+003,9.095415e-001
3.342088e+003,9.122525e-001
3.344016e+003,9.153036e-001
3.345945e+003,9.187479e-001
3.347873e+003,9.220806e-001
3.349802e+003,9.245183e-001
3.351730e+003,9.274840e-001
3.353659e+003,9.309853e-001
3.355587e+003,9.342742e-001
3.357516e+003,9.368424e-001
3.359444e+003,9.394466e-001
3.361373e+003,9.430884e-001
3.363302e+003,9.465275e-001
3.365230e+003,9.490849e-001
3.367158e+003,9.519594e-001
3.369087e+003,9.551190e-001
3.371015e+003,9.575810e-001
3.372944e+003,9.597851e-001
3.374872e+003,9.625816e-001
3.376801e+003,9.656882e-001
3.378729e+003,9.681062e-001
3.380658e+003,9.698722e-001
3.382586e+003,9.719902e-001
3.384515e+003,9.752904e-001
3.386443e+003,9.780588e-001
3.388372e+003,9.798430e-001
3.390300e+003,9.815286e-001
3.392229e+003,9.836587e-001
3.394157e+003,9.859412e-001
3.396086e+003,9.881621e-001
3.398014e+003,9.902435e-001
3.399943e+003,9.918157e-001
3.401871e+003,9.940728e-001
3.403800e+003,9.967237e-001
3.405728e+003,9.980657e-001
3.407657e+003,9.989524e-001
3.409585e+003,1.000165e+000
3.411514e+003,1.002108e+000
3.413442e+003,1.004604e+000
3.415371e+003,1.007047e+000
3.417299e+003,1.007421e+000
3.419228e+003,1.008789e+000
3.421156e+003,1.010952e+000
3.423085e+003,1.011328e+000
3.425013e+003,1.010765e+000
3.426942e+003,1.010684e+000
3.428870e+003,1.011829e+000
3.430799e+003,1.014061e+000
3.432727e+003,1.015248e+000
3.434656e+003,1.014209e+000
3.436584e+003,1.015206e+000
3.438513e+003,1.017780e+000
3.440441e+003,1.018308e+000
3.442370e+003,1.018749e+000
3.444298e+003,1.019047e+000
3.446227e+003,1.019794e+000
3.448155e+003,1.020963e+000
3.450084e+003,1.020306e+000
3.452012e+003,1.021484e+000
3.453941e+003,1.021646e+000
3.455869e+003,1.020713e+000
3.457798e+003,1.020187e+000
3.459726e+003,1.019219e+000
3.461655e+003,1.020106e+000
3.463583e+003,1.019937e+000
3.465512e+003,1.018680e+000
3.467440e+003,1.019128e+000
3.469369e+003,1.018830e+000
3.471297e+003,1.019029e+000
3.473226e+003,1.019750e+000
3.475154e+003,1.019616e+000
3.477083e+003,1.018188e+000
3.479011e+003,1.016677e+000
3.480940e+003,1.018255e+000
3.482868e+003,1.018498e+000
3.484797e+003,1.015676e+000
3.486725e+003,1.014393e+000
3.488654e+003,1.015557e+000
3.490582e+003,1.014153e+000
3.492511e+003,1.012064e+000
3.494439e+003,1.010871e+000
3.496368e+003,1.010056e+000
3.498296e+003,1.009249e+000
3.500225e+003,1.007967e+000
3.502153e+003,1.008034e+000
3.504082e+003,1.009918e+000
3.506010e+003,1.008267e+000
3.507939e+003,1.006412e+000
3.509867e+003,1.006950e+000
3.511796e+003,1.005186e+000
3.513724e+003,1.002742e+000
3.515653e+003,1.001236e+000
3.517581e+003,9.993944e-001
3.519510e+003,9.975925e-001
3.521438e+003,9.967533e-001
3.523367e+003,9.973690e-001
3.525295e+003,9.959368e-001
3.527224e+003,9.955928e-001
3.529152e+003,9.948334e-001
3.531081e+003,9.933378e-001
3.533009e+003,9.916134e-001
3.534938e+003,9.897414e-001
3.536866e+003,9.891561e-001
3.538795e+003,9.871321e-001
3.540723e+003,9.848034e-001
3.542652e+003,9.836197e-001
3.544580e+003,9.843753e-001
3.546509e+003,9.846047e-001
3.548437e+003,9.816585e-001
3.550366e+003,9.794078e-001
3.552294e+003,9.802977e-001
3.554223e+003,9.781544e-001
3.556151e+003,9.742467e-001
3.558080e+003,9.720395e-001
3.560008e+003,9.703104e-001
3.561937e+003,9.684259e-001
3.563865e+003,9.662004e-001
3.565794e+003,9.682419e-001
3.567722e+003,9.685147e-001
3.569651e+003,9.603338e-001
3.571579e+003,9.551190e-001
3.573508e+003,9.523575e-001
3.575436e+003,9.491380e-001
3.577365e+003,9.464288e-001
3.579293e+003,9.425052e-001
3.581222e+003,9.376816e-001
3.583150e+003,9.337763e-001
3.585079e+003,9.304526e-001
3.587007e+003,9.313484e-001
3.588936e+003,9.277799e-001
3.590864e+003,9.207808e-001
3.592793e+003,9.180723e-001
3.594721e+003,9.157376e-001
3.596650e+003,9.102948e-001
3.598578e+003,9.043822e-001
3.600507e+003,9.014359e-001
3.602435e+003,8.970299e-001
3.604364e+003,8.917060e-001
3.606292e+003,8.885658e-001
3.608221e+003,8.869673e-001
3.610149e+003,8.803082e-001
3.612078e+003,8.749907e-001
3.614006e+003,8.708113e-001
3.615935e+003,8.651267e-001
3.617863e+003,8.627073e-001
3.619792e+003,8.577256e-001
3.621720e+003,8.480726e-001
3.623649e+003,8.418545e-001
3.625577e+003,8.383514e-001
3.627506e+003,8.382629e-001
3.629434e+003,8.360421e-001
3.631363e+003,8.244654e-001
3.633291e+003,8.161939e-001
3.635220e+003,8.094605e-001
3.637148e+003,8.033516e-001
3.639077e+003,7.976348e-001
3.641005e+003,7.916002e-001
3.642934e+003,7.865108e-001
3.644862e+003,7.814928e-001
3.646791e+003,7.827898e-001
3.648719e+003,7.823384e-001
3.650648e+003,7.717578e-001
3.652576e+003,7.600216e-001
3.654505e+003,7.530642e-001
3.656433e+003,7.480258e-001
3.658362e+003,7.410907e-001
3.660290e+003,7.352372e-001
3.662219e+003,7.308554e-001
3.664147e+003,7.260559e-001
3.666076e+003,7.214616e-001
3.668004e+003,7.191440e-001
3.669933e+003,7.191666e-001
3.671861e+003,7.119518e-001
3.673790e+003,7.080941e-001
3.675718e+003,7.095984e-001
3.677647e+003,7.018762e-001
3.679575e+003,6.951123e-001
3.681504e+003,6.894017e-001
3.683432e+003,6.851823e-001
3.685361e+003,6.823747e-001
3.687289e+003,6.805480e-001
3.689218e+003,6.817021e-001
3.691146e+003,6.775628e-001
3.693075e+003,6.723065e-001
3.695003e+003,6.677370e-001
3.696932e+003,6.650981e-001
3.698860e+003,6.624335e-001
3.700789e+003,6.612407e-001
3.702717e+003,6.597398e-001
3.704646e+003,6.564619e-001
3.706574e+003,6.538266e-001
3.708503e+003,6.531233e-001
3.710431e+003,6.540594e-001
3.712360e+003,6.522713e-001
3.714288e+003,6.473433e-001
3.716217e+003,6.442843e-001
3.718145e+003,6.427945e-001
3.720074e+003,6.421610e-001
3.722002e+003,6.423212e-001
3.723931e+003,6.418371e-001
3.725859e+003,6.402897e-001
3.727788e+003,6.390489e-001
3.729716e+003,6.366485e-001
3.731645e+003,6.368679e-001
3.733573e+003,6.381648e-001
3.735502e+003,6.405697e-001
3.737430e+003,6.357537e-001
3.739359e+003,6.321222e-001
3.741287e+003,6.303142e-001
3.743216e+003,6.303281e-001
3.745144e+003,6.323147e-001
3.747073e+003,6.289118e-001
3.749001e+003,6.291649e-001
3.750930e+003,6.314628e-001
3.752858e+003,6.254560e-001
3.754787e+003,6.207216e-001
3.756715e+003,6.188498e-001
3.758644e+003,6.190367e-001
3.760572e+003,6.179686e-001
3.762500e+003,6.154650e-001
3.764429e+003,6.146542e-001
3.766358e+003,6.146911e-001
3.768286e+003,6.129990e-001
3.770215e+003,6.133385e-001
3.772143e+003,6.116097e-001
3.774072e+003,6.098098e-001
3.776000e+003,6.085609e-001
3.777928e+003,6.082761e-001
3.779857e+003,6.087201e-001
3.781786e+003,6.074837e-001
3.783714e+003,6.066336e-001
3.785643e+003,6.067225e-001
3.787571e+003,6.048954e-001
3.789500e+003,6.037669e-001
3.791428e+003,6.030389e-001
3.793356e+003,6.025902e-001
3.795285e+003,6.028540e-001
3.797214e+003,6.040469e-001
3.799142e+003,6.029305e-001
3.801071e+003,6.054856e-001
3.802999e+003,6.041460e-001
3.804927e+003,6.011487e-001
3.806856e+003,6.015172e-001
3.808785e+003,5.998482e-001
3.810713e+003,5.976814e-001
3.812642e+003,5.967525e-001
3.814570e+003,5.971013e-001
3.816499e+003,6.005395e-001
3.818427e+003,5.991729e-001
3.820355e+003,6.006875e-001
3.822284e+003,5.996960e-001
3.824213e+003,5.959285e-001
3.826141e+003,5.948043e-001
3.828070e+003,5.940964e-001
3.829998e+003,5.928881e-001
3.831927e+003,5.936492e-001
3.833855e+003,5.931320e-001
3.835783e+003,5.937485e-001
3.837712e+003,5.955129e-001
3.839641e+003,5.952123e-001
3.841569e+003,5.921489e-001
3.843498e+003,5.908463e-001
3.845426e+003,5.887892e-001
3.847354e+003,5.873942e-001
3.849283e+003,5.877262e-001
3.851211e+003,5.888924e-001
3.853140e+003,5.942330e-001
3.855069e+003,5.918319e-001
3.856997e+003,5.877644e-001
3.858926e+003,5.855469e-001
3.860854e+003,5.849452e-001
3.862782e+003,5.861371e-001
3.864711e+003,5.872538e-001
3.866639e+003,5.856595e-001
3.868568e+003,5.849128e-001
3.870497e+003,5.875614e-001
3.872425e+003,5.841119e-001
3.874354e+003,5.834595e-001
3.876282e+003,5.812128e-001
3.878210e+003,5.797603e-001
3.880139e+003,5.812123e-001
3.882067e+003,5.814303e-001
3.883996e+003,5.800598e-001
3.885925e+003,5.805992e-001
3.887853e+003,5.783565e-001
3.889781e+003,5.774827e-001
3.891710e+003,5.788807e-001
3.893638e+003,5.776480e-001
3.895567e+003,5.759527e-001
3.897495e+003,5.759254e-001
3.899424e+003,5.770695e-001
3.901353e+003,5.777754e-001
3.903281e+003,5.775859e-001
3.905209e+003,5.770142e-001
3.907138e+003,5.743296e-001
3.909066e+003,5.724556e-001
3.910995e+003,5.713826e-001
3.912924e+003,5.711551e-001
3.914852e+003,5.708411e-001
3.916781e+003,5.715283e-001
3.918709e+003,5.713710e-001
3.920637e+003,5.707941e-001
3.922566e+003,5.697222e-001
3.924494e+003,5.699570e-001
3.926423e+003,5.689788e-001
3.928352e+003,5.679075e-001
3.930280e+003,5.677372e-001
3.932208e+003,5.678067e-001
3.934137e+003,5.670483e-001
3.936065e+003,5.659829e-001
3.937994e+003,5.651602e-001
3.939922e+003,5.645295e-001
3.941851e+003,5.648058e-001
3.943780e+003,5.646999e-001
3.945708e+003,5.634796e-001
3.947636e+003,5.636370e-001
3.949565e+003,5.637316e-001
3.951493e+003,5.630567e-001
3.953422e+003,5.613084e-001
3.955350e+003,5.605077e-001
3.957279e+003,5.600316e-001
3.959208e+003,5.593968e-001
3.961136e+003,5.590925e-001
3.963064e+003,5.584385e-001
3.964993e+003,5.576453e-001
3.966921e+003,5.576057e-001
3.968850e+003,5.569190e-001
3.970778e+003,5.564281e-001
3.972707e+003,5.562890e-001
3.974635e+003,5.559894e-001
3.976564e+003,5.549304e-001
3.978492e+003,5.544347e-001
3.980421e+003,5.537438e-001
3.982349e+003,5.531437e-001
3.984278e+003,5.523446e-001
3.986206e+003,5.518001e-001
3.988135e+003,5.508566e-001
3.990063e+003,5.504441e-001
3.991992e+003,5.499895e-001
3.993920e+003,5.496415e-001
3.995849e+003,5.490094e-001
3.997777e+003,5.484728e-001
3.999706e+003,5.478565e-001
