3.991992e+002,5.977235e+001
4.011277e+002,5.353273e+001
4.030562e+002,4.889781e+001
4.049847e+002,4.273000e+001
4.069132e+002,3.754242e+001
4.088417e+002,3.341866e+001
4.107702e+002,2.945670e+001
4.126987e+002,2.615585e+001
4.146272e+002,2.396386e+001
4.165557e+002,2.270348e+001
4.184842e+002,2.211867e+001
4.204127e+002,1.828948e+001
4.223412e+002,1.633186e+001
4.242697e+002,1.579417e+001
4.261982e+002,1.576361e+001
4.281267e+002,1.602399e+001
4.300552e+002,1.662179e+001
4.319837e+002,1.731826e+001
4.339122e+002,1.765778e+001
4.358407e+002,1.719893e+001
4.377692e+002,1.699988e+001
4.396977e+002,1.708244e+001
4.416262e+002,1.746552e+001
4.435547e+002,1.730708e+001
4.454832e+002,1.722494e+001
4.474117e+002,1.717249e+001
4.493401e+002,1.716120e+001
4.512686e+002,1.679053e+001
4.531971e+002,1.604951e+001
4.551256e+002,1.512375e+001
4.570541e+002,1.411222e+001
4.589826e+002,1.267196e+001
4.609111e+002,1.192379e+001
4.628396e+002,1.132832e+001
4.647681e+002,1.118345e+001
4.666966e+002,1.121016e+001
4.686251e+002,1.172288e+001
4.705536e+002,1.210485e+001
4.724821e+002,1.285859e+001
4.744106e+002,1.369181e+001
4.763391e+002,1.463467e+001
4.782676e+002,1.562083e+001
4.801961e+002,1.698013e+001
4.821246e+002,1.817244e+001
4.840531e+002,1.928251e+001
4.859816e+002,2.017830e+001
4.879101e+002,2.153013e+001
4.898386e+002,2.345001e+001
4.917671e+002,2.621866e+001
4.936956e+002,2.896276e+001
4.956241e+002,3.201228e+001
4.975526e+002,3.583863e+001
4.994811e+002,3.979679e+001
5.014096e+002,4.302565e+001
5.033381e+002,4.630823e+001
5.052666e+002,4.881136e+001
5.071951e+002,5.153325e+001
5.091236e+002,5.457777e+001
5.110521e+002,5.781582e+001
5.129806e+002,6.108280e+001
5.149091e+002,6.441448e+001
5.168376e+002,6.798723e+001
5.187661e+002,7.216956e+001
5.206946e+002,7.605924e+001
5.226231e+002,7.946553e+001
5.245516e+002,8.267023e+001
5.264801e+002,8.636090e+001
5.284086e+002,8.918234e+001
5.303371e+002,9.166386e+001
5.322656e+002,9.424683e+001
5.341941e+002,9.650141e+001
5.361226e+002,9.810235e+001
5.380511e+002,9.938459e+001
5.399796e+002,1.000000e+002
5.419081e+002,9.953519e+001
5.438365e+002,9.802129e+001
5.457651e+002,9.507127e+001
5.476936e+002,8.984854e+001
5.496221e+002,8.184431e+001
5.515506e+002,7.146227e+001
5.534791e+002,6.045573e+001
5.554076e+002,4.991746e+001
5.573361e+002,4.189932e+001
5.592646e+002,3.768698e+001
5.611931e+002,3.705465e+001
5.631216e+002,3.949079e+001
5.650500e+002,4.454700e+001
5.669786e+002,5.140219e+001
5.689070e+002,5.922618e+001
5.708356e+002,6.689079e+001
5.727640e+002,7.375652e+001
5.746926e+002,7.947523e+001
5.766210e+002,8.471443e+001
5.785496e+002,8.875121e+001
5.804780e+002,9.162730e+001
5.824066e+002,9.380830e+001
5.843350e+002,9.478188e+001
5.862635e+002,9.445737e+001
5.881920e+002,9.240099e+001
5.901205e+002,8.854261e+001
5.920490e+002,8.188504e+001
5.939775e+002,7.257513e+001
5.959060e+002,6.148620e+001
5.978345e+002,5.122723e+001
5.997631e+002,4.455949e+001
6.016915e+002,4.288722e+001
6.036201e+002,4.570493e+001
6.055485e+002,5.171315e+001
6.074771e+002,5.877307e+001
6.094055e+002,6.545824e+001
6.113340e+002,7.048164e+001
6.132625e+002,7.359985e+001
6.151910e+002,7.467107e+001
6.171195e+002,7.373611e+001
6.190480e+002,7.094829e+001
6.209765e+002,6.706459e+001
6.229050e+002,6.298277e+001
6.248335e+002,6.140293e+001
6.267620e+002,6.363517e+001
6.286905e+002,6.887611e+001
6.306190e+002,7.462366e+001
6.325475e+002,7.894682e+001
6.344760e+002,8.085822e+001
6.364045e+002,8.071461e+001
6.383330e+002,7.868114e+001
6.402615e+002,7.518318e+001
6.421900e+002,7.032166e+001
6.441185e+002,6.545412e+001
6.460470e+002,6.105045e+001
6.479755e+002,5.783112e+001
6.499040e+002,5.544770e+001
6.518325e+002,5.319960e+001
6.537610e+002,4.965683e+001
6.556895e+002,4.522140e+001
6.576180e+002,4.000918e+001
6.595465e+002,3.467463e+001
6.614750e+002,2.963768e+001
6.634035e+002,2.593970e+001
6.653320e+002,2.354313e+001
6.672605e+002,2.149338e+001
6.691890e+002,1.920987e+001
6.711175e+002,1.856548e+001
6.730460e+002,1.769253e+001
6.749745e+002,1.700637e+001
6.769030e+002,1.660997e+001
6.788315e+002,1.663408e+001
6.807599e+002,1.686452e+001
6.826885e+002,1.690456e+001
6.846169e+002,1.662777e+001
6.865455e+002,1.638694e+001
6.884739e+002,1.623151e+001
6.904025e+002,1.638858e+001
6.923309e+002,1.670762e+001
6.942595e+002,1.702372e+001
6.961880e+002,1.723211e+001
6.981165e+002,1.756035e+001
7.000450e+002,1.821061e+001
7.019734e+002,1.949977e+001
7.039020e+002,2.144915e+001
7.058304e+002,2.414541e+001
7.077590e+002,2.712367e+001
7.096874e+002,2.960598e+001
7.116160e+002,3.111678e+001
7.135444e+002,3.140976e+001
7.154730e+002,3.101777e+001
7.174014e+002,3.087589e+001
7.193300e+002,3.177201e+001
7.212584e+002,3.415589e+001
7.231870e+002,3.756565e+001
7.251154e+002,4.138482e+001
7.270439e+002,4.530441e+001
7.289724e+002,4.895928e+001
7.309009e+002,5.232575e+001
7.328294e+002,5.540795e+001
7.347579e+002,5.826370e+001
7.366864e+002,6.093096e+001
7.386149e+002,6.347188e+001
7.405434e+002,6.576618e+001
7.424719e+002,6.793875e+001
7.444004e+002,6.995560e+001
7.463289e+002,7.191567e+001
7.482574e+002,7.365650e+001
7.501859e+002,7.526511e+001
7.521144e+002,7.674121e+001
7.540429e+002,7.828738e+001
7.559714e+002,7.969025e+001
7.578999e+002,8.098477e+001
7.598284e+002,8.217142e+001
7.617569e+002,8.335152e+001
7.636854e+002,8.434248e+001
7.656139e+002,8.544663e+001
7.675424e+002,8.640901e+001
7.694709e+002,8.735038e+001
7.713994e+002,8.817690e+001
7.733279e+002,8.898937e+001
7.752564e+002,8.971293e+001
7.771849e+002,9.047320e+001
7.791134e+002,9.108985e+001
7.810419e+002,9.165009e+001
7.829704e+002,9.205845e+001
7.848989e+002,9.244582e+001
7.868274e+002,9.270758e+001
7.887559e+002,9.309195e+001
7.906844e+002,9.334553e+001
7.926129e+002,9.364282e+001
7.945414e+002,9.383494e+001
7.964699e+002,9.397466e+001
7.983984e+002,9.395396e+001
8.003269e+002,9.386520e+001
8.022554e+002,9.372829e+001
8.041839e+002,9.363716e+001
8.061124e+002,9.337851e+001
8.080409e+002,9.310321e+001
8.099694e+002,9.266264e+001
8.118979e+002,9.225225e+001
8.138264e+002,9.170968e+001
8.157549e+002,9.115788e+001
8.176833e+002,9.056297e+001
8.196119e+002,8.994879e+001
8.215403e+002,8.917970e+001
8.234689e+002,8.842628e+001
8.253973e+002,8.749606e+001
8.273259e+002,8.655172e+001
8.292543e+002,8.557552e+001
8.311829e+002,8.450911e+001
8.331113e+002,8.332336e+001
8.350399e+002,8.217139e+001
8.369683e+002,8.092406e+001
8.388969e+002,7.968481e+001
8.408253e+002,7.837050e+001
8.427538e+002,7.691249e+001
8.446824e+002,7.525726e+001
8.466108e+002,7.361510e+001
8.485394e+002,7.190927e+001
8.504678e+002,7.013440e+001
8.523964e+002,6.833949e+001
8.543248e+002,6.657317e+001
8.562534e+002,6.470202e+001
8.581818e+002,6.284171e+001
8.601104e+002,6.089430e+001
8.620388e+002,5.894608e+001
8.639673e+002,5.694682e+001
8.658958e+002,5.492850e+001
8.678243e+002,5.286280e+001
8.697528e+002,5.084347e+001
8.716813e+002,4.872355e+001
8.736098e+002,4.655222e+001
8.755383e+002,4.446969e+001
8.774668e+002,4.243047e+001
8.793953e+002,4.030411e+001
8.813238e+002,3.822767e+001
8.832523e+002,3.623507e+001
8.851808e+002,3.431193e+001
8.871093e+002,3.250076e+001
8.890378e+002,3.069420e+001
8.909663e+002,2.904510e+001
8.928948e+002,2.756201e+001
8.948233e+002,2.615351e+001
8.967518e+002,2.484013e+001
8.986803e+002,2.362767e+001
9.006088e+002,2.244218e+001
9.025373e+002,2.131070e+001
9.044658e+002,2.019971e+001
9.063943e+002,1.919162e+001
9.083228e+002,1.821562e+001
9.102513e+002,1.726165e+001
9.121798e+002,1.634617e+001
9.141083e+002,1.551293e+001
9.160368e+002,1.477453e+001
9.179653e+002,1.411069e+001
9.198938e+002,1.345510e+001
9.218223e+002,1.284570e+001
9.237508e+002,1.226774e+001
9.256793e+002,1.179939e+001
9.276078e+002,1.145711e+001
9.295363e+002,1.118353e+001
9.314648e+002,1.096584e+001
9.333932e+002,1.080139e+001
9.353218e+002,1.066685e+001
9.372502e+002,1.058899e+001
9.391788e+002,1.052832e+001
9.411072e+002,1.048189e+001
9.430358e+002,1.043766e+001
9.449643e+002,1.045017e+001
9.468928e+002,1.042079e+001
9.488213e+002,1.038184e+001
9.507498e+002,1.031565e+001
9.526783e+002,1.029778e+001
9.546068e+002,1.026341e+001
9.565353e+002,1.022037e+001
9.584637e+002,1.017452e+001
9.603923e+002,1.014326e+001
9.623207e+002,1.007246e+001
9.642493e+002,1.008022e+001
9.661777e+002,1.008252e+001
9.681063e+002,1.006335e+001
9.700347e+002,1.005109e+001
9.719633e+002,1.005310e+001
9.738917e+002,1.003247e+001
9.758203e+002,1.008674e+001
9.777487e+002,1.013591e+001
9.796772e+002,1.016516e+001
9.816057e+002,1.018282e+001
9.835342e+002,1.025001e+001
9.854627e+002,1.030587e+001
9.873912e+002,1.033169e+001
9.893197e+002,1.034776e+001
9.912482e+002,1.036945e+001
9.931768e+002,1.032349e+001
9.951052e+002,1.027430e+001
9.970338e+002,1.022831e+001
9.989622e+002,1.019253e+001
1.000891e+003,1.008511e+001
1.002819e+003,1.000000e+001
1.004748e+003,1.000868e+001
1.006676e+003,1.001932e+001
1.008605e+003,1.001897e+001
1.010533e+003,1.005390e+001
1.012462e+003,1.007714e+001
1.014390e+003,1.014100e+001
1.016319e+003,1.016686e+001
1.018247e+003,1.019496e+001
1.020176e+003,1.023342e+001
1.022104e+003,1.033906e+001
1.024033e+003,1.040776e+001
1.025961e+003,1.049700e+001
1.027890e+003,1.058079e+001
1.029818e+003,1.066888e+001
1.031747e+003,1.073894e+001
1.033675e+003,1.083430e+001
1.035604e+003,1.089602e+001
1.037532e+003,1.100079e+001
1.039461e+003,1.113415e+001
1.041389e+003,1.125569e+001
1.043318e+003,1.138261e+001
1.045246e+003,1.154252e+001
1.047175e+003,1.175575e+001
1.049103e+003,1.199821e+001
1.051032e+003,1.219594e+001
1.052960e+003,1.240353e+001
1.054889e+003,1.266898e+001
1.056817e+003,1.294566e+001
1.058746e+003,1.316575e+001
1.060674e+003,1.337635e+001
1.062603e+003,1.357758e+001
1.064531e+003,1.374298e+001
1.066460e+003,1.385758e+001
1.068388e+003,1.384437e+001
1.070317e+003,1.381639e+001
1.072245e+003,1.385530e+001
1.074174e+003,1.385489e+001
1.076102e+003,1.393992e+001
1.078031e+003,1.408108e+001
1.079959e+003,1.423010e+001
1.081888e+003,1.437732e+001
1.083816e+003,1.453934e+001
1.085745e+003,1.468383e+001
1.087673e+003,1.489318e+001
1.089602e+003,1.506404e+001
1.091530e+003,1.524257e+001
1.093459e+003,1.544380e+001
1.095387e+003,1.560343e+001
1.097316e+003,1.572566e+001
1.099244e+003,1.589688e+001
1.101173e+003,1.606339e+001
1.103101e+003,1.621631e+001
1.105030e+003,1.628376e+001
1.106958e+003,1.622994e+001
1.108887e+003,1.608383e+001
1.110815e+003,1.587393e+001
1.112744e+003,1.564015e+001
1.114672e+003,1.540674e+001
1.116601e+003,1.515794e+001
1.118529e+003,1.487401e+001
1.120458e+003,1.468810e+001
1.122386e+003,1.466917e+001
1.124315e+003,1.464168e+001
1.126243e+003,1.467694e+001
1.128172e+003,1.474307e+001
1.130100e+003,1.485793e+001
1.132029e+003,1.498260e+001
1.133957e+003,1.516606e+001
1.135886e+003,1.538615e+001
1.137814e+003,1.562919e+001
1.139743e+003,1.586129e+001
1.141671e+003,1.605217e+001
1.143600e+003,1.617074e+001
1.145528e+003,1.627514e+001
1.147457e+003,1.631080e+001
1.149385e+003,1.633060e+001
1.151314e+003,1.635656e+001
1.153242e+003,1.647256e+001
1.155171e+003,1.658134e+001
1.157099e+003,1.669618e+001
1.159028e+003,1.685773e+001
1.160956e+003,1.709789e+001
1.162885e+003,1.735324e+001
1.164813e+003,1.763311e+001
1.166742e+003,1.787927e+001
1.168670e+003,1.813160e+001
1.170599e+003,1.838220e+001
1.172527e+003,1.860905e+001
1.174456e+003,1.890271e+001
1.176384e+003,1.921199e+001
1.178313e+003,1.944793e+001
1.180241e+003,1.972248e+001
1.182170e+003,2.000359e+001
1.184098e+003,2.028544e+001
1.186027e+003,2.053431e+001
1.187955e+003,2.075938e+001
1.189884e+003,2.099280e+001
1.191812e+003,2.122754e+001
1.193741e+003,2.144541e+001
1.195669e+003,2.163379e+001
1.197598e+003,2.186094e+001
1.199526e+003,2.205757e+001
1.201455e+003,2.223142e+001
1.203383e+003,2.243032e+001
1.205312e+003,2.263227e+001
1.207240e+003,2.284263e+001
1.209169e+003,2.302457e+001
1.211097e+003,2.324174e+001
1.213026e+003,2.341887e+001
1.214954e+003,2.355828e+001
1.216883e+003,2.368206e+001
1.218811e+003,2.386528e+001
1.220740e+003,2.405765e+001
1.222668e+003,2.423875e+001
1.224597e+003,2.442290e+001
1.226525e+003,2.457338e+001
1.228453e+003,2.468133e+001
1.230382e+003,2.482696e+001
1.232311e+003,2.499320e+001
1.234239e+003,2.515211e+001
1.236167e+003,2.531894e+001
1.238096e+003,2.546342e+001
1.240025e+003,2.561627e+001
1.241953e+003,2.576606e+001
1.243882e+003,2.588873e+001
1.245810e+003,2.598273e+001
1.247739e+003,2.611120e+001
1.249667e+003,2.623832e+001
1.251596e+003,2.637132e+001
1.253524e+003,2.651286e+001
1.255453e+003,2.663052e+001
1.257381e+003,2.673666e+001
1.259310e+003,2.685694e+001
1.261238e+003,2.696361e+001
1.263167e+003,2.706431e+001
1.265095e+003,2.716053e+001
1.267024e+003,2.724346e+001
1.268952e+003,2.735489e+001
1.270880e+003,2.749508e+001
1.272809e+003,2.763522e+001
1.274738e+003,2.773917e+001
1.276666e+003,2.782891e+001
1.278594e+003,2.792986e+001
1.280523e+003,2.805526e+001
1.282452e+003,2.815432e+001
1.284380e+003,2.824163e+001
1.286308e+003,2.834287e+001
1.288237e+003,2.846646e+001
1.290166e+003,2.856079e+001
1.292094e+003,2.864556e+001
1.294022e+003,2.872448e+001
1.295951e+003,2.881552e+001
1.297880e+003,2.893909e+001
1.299808e+003,2.902967e+001
1.301736e+003,2.910339e+001
1.303665e+003,2.915390e+001
1.305594e+003,2.922158e+001
1.307522e+003,2.929924e+001
1.309450e+003,2.938741e+001
1.311379e+003,2.942444e+001
1.313307e+003,2.953872e+001
1.315236e+003,2.960559e+001
1.317164e+003,2.965289e+001
1.319093e+003,2.978573e+001
1.321021e+003,2.992353e+001
1.322950e+003,2.996916e+001
1.324878e+003,3.000876e+001
1.326807e+003,3.006761e+001
1.328735e+003,3.014377e+001
1.330664e+003,3.019837e+001
1.332592e+003,3.026085e+001
1.334521e+003,3.026424e+001
1.336449e+003,3.027929e+001
1.338378e+003,3.037395e+001
1.340307e+003,3.066203e+001
1.342235e+003,3.071809e+001
1.344163e+003,3.070066e+001
1.346092e+003,3.073404e+001
1.348021e+003,3.076686e+001
1.349949e+003,3.084864e+001
1.351877e+003,3.090823e+001
1.353806e+003,3.093090e+001
1.355734e+003,3.105298e+001
1.357663e+003,3.110657e+001
1.359591e+003,3.107427e+001
1.361520e+003,3.113124e+001
1.363448e+003,3.146806e+001
1.365377e+003,3.144822e+001
1.367305e+003,3.139345e+001
1.369234e+003,3.147234e+001
1.371162e+003,3.140259e+001
1.373091e+003,3.139886e+001
1.375019e+003,3.171745e+001
1.376948e+003,3.170297e+001
1.378876e+003,3.172538e+001
1.380805e+003,3.177329e+001
1.382733e+003,3.176038e+001
1.384662e+003,3.165063e+001
1.386590e+003,3.179489e+001
1.388519e+003,3.215313e+001
1.390447e+003,3.204267e+001
1.392376e+003,3.182660e+001
1.394304e+003,3.189671e+001
1.396233e+003,3.216522e+001
1.398161e+003,3.217249e+001
1.400090e+003,3.241671e+001
1.402018e+003,3.222963e+001
1.403947e+003,3.216394e+001
1.405875e+003,3.238031e+001
1.407804e+003,3.236200e+001
1.409732e+003,3.230406e+001
1.411661e+003,3.235197e+001
1.413589e+003,3.233259e+001
1.415518e+003,3.222735e+001
1.417446e+003,3.218755e+001
1.419375e+003,3.275232e+001
1.421303e+003,3.274390e+001
1.423232e+003,3.256937e+001
1.425160e+003,3.278216e+001
1.427089e+003,3.260098e+001
1.429017e+003,3.263217e+001
1.430946e+003,3.283538e+001
1.432874e+003,3.275375e+001
1.434803e+003,3.245697e+001
1.436731e+003,3.296674e+001
1.438660e+003,3.320205e+001
1.440588e+003,3.300560e+001
1.442517e+003,3.298060e+001
1.444445e+003,3.294688e+001
1.446374e+003,3.290407e+001
1.448302e+003,3.319721e+001
1.450231e+003,3.320023e+001
1.452159e+003,3.307659e+001
1.454088e+003,3.282286e+001
1.456016e+003,3.262744e+001
1.457945e+003,3.390351e+001
1.459873e+003,3.381240e+001
1.461802e+003,3.330278e+001
1.463730e+003,3.313696e+001
1.465659e+003,3.362768e+001
1.467587e+003,3.355540e+001
1.469516e+003,3.317844e+001
1.471444e+003,3.295374e+001
1.473373e+003,3.375616e+001
1.475301e+003,3.379839e+001
1.477230e+003,3.377814e+001
1.479158e+003,3.352109e+001
1.481087e+003,3.353364e+001
1.483015e+003,3.359067e+001
1.484944e+003,3.337188e+001
1.486872e+003,3.328679e+001
1.488801e+003,3.343379e+001
1.490729e+003,3.410456e+001
1.492658e+003,3.386327e+001
1.494586e+003,3.338340e+001
1.496515e+003,3.358707e+001
1.498443e+003,3.396091e+001
1.500372e+003,3.397514e+001
1.502300e+003,3.369186e+001
1.504229e+003,3.304265e+001
1.506157e+003,3.289175e+001
1.508086e+003,3.468127e+001
1.510014e+003,3.420511e+001
1.511943e+003,3.397506e+001
1.513871e+003,3.368671e+001
1.515800e+003,3.350475e+001
1.517728e+003,3.402408e+001
1.519657e+003,3.355286e+001
1.521585e+003,3.404117e+001
1.523514e+003,3.420205e+001
1.525442e+003,3.401360e+001
1.527371e+003,3.434491e+001
1.529299e+003,3.425340e+001
1.531228e+003,3.378502e+001
1.533156e+003,3.411041e+001
1.535085e+003,3.455425e+001
1.537013e+003,3.371375e+001
1.538942e+003,3.325768e+001
1.540870e+003,3.463633e+001
1.542799e+003,3.461591e+001
1.544727e+003,3.473967e+001
1.546656e+003,3.456838e+001
1.548584e+003,3.417432e+001
1.550513e+003,3.446609e+001
1.552441e+003,3.419163e+001
1.554370e+003,3.414825e+001
1.556298e+003,3.375402e+001
1.558227e+003,3.341051e+001
1.560155e+003,3.580026e+001
1.562084e+003,3.488016e+001
1.564012e+003,3.448141e+001
1.565941e+003,3.448705e+001
1.567869e+003,3.409701e+001
1.569798e+003,3.471068e+001
1.571726e+003,3.466999e+001
1.573655e+003,3.402456e+001
1.575583e+003,3.420090e+001
1.577512e+003,3.507214e+001
1.579440e+003,3.469391e+001
1.581369e+003,3.452997e+001
1.583297e+003,3.453136e+001
1.585226e+003,3.451539e+001
1.587154e+003,3.449063e+001
1.589083e+003,3.447984e+001
1.591011e+003,3.447684e+001
1.592940e+003,3.442853e+001
1.594868e+003,3.446553e+001
1.596797e+003,3.449098e+001
1.598725e+003,3.439155e+001
1.600654e+003,3.431959e+001
1.602582e+003,3.436174e+001
1.604511e+003,3.437222e+001
1.606439e+003,3.425031e+001
1.608368e+003,3.428933e+001
1.610296e+003,3.438567e+001
1.612225e+003,3.425923e+001
1.614153e+003,3.384586e+001
1.616082e+003,3.397699e+001
1.618010e+003,3.463405e+001
1.619939e+003,3.411765e+001
1.621867e+003,3.378170e+001
1.623796e+003,3.429443e+001
1.625724e+003,3.411972e+001
1.627653e+003,3.407874e+001
1.629581e+003,3.425945e+001
1.631510e+003,3.389159e+001
1.633438e+003,3.339104e+001
1.635367e+003,3.366735e+001
1.637295e+003,3.458887e+001
1.639224e+003,3.417808e+001
1.641152e+003,3.402547e+001
1.643081e+003,3.372786e+001
1.645009e+003,3.328017e+001
1.646938e+003,3.400811e+001
1.648866e+003,3.433735e+001
1.650795e+003,3.334579e+001
1.652723e+003,3.376929e+001
1.654652e+003,3.523264e+001
1.656580e+003,3.443718e+001
1.658509e+003,3.402767e+001
1.660437e+003,3.376591e+001
1.662366e+003,3.395783e+001
1.664294e+003,3.430607e+001
1.666223e+003,3.375430e+001
1.668151e+003,3.350628e+001
1.670080e+003,3.417799e+001
1.672008e+003,3.420446e+001
1.673937e+003,3.376063e+001
1.675865e+003,3.435981e+001
1.677794e+003,3.403253e+001
1.679722e+003,3.378170e+001
1.681651e+003,3.343856e+001
1.683579e+003,3.364371e+001
1.685508e+003,3.497566e+001
1.687436e+003,3.426125e+001
1.689365e+003,3.422688e+001
1.691293e+003,3.422757e+001
1.693222e+003,3.370518e+001
1.695150e+003,3.358656e+001
1.697079e+003,3.419949e+001
1.699007e+003,3.379604e+001
1.700936e+003,3.494151e+001
1.702864e+003,3.435182e+001
1.704793e+003,3.409215e+001
1.706721e+003,3.465359e+001
1.708650e+003,3.443781e+001
1.710578e+003,3.431491e+001
1.712507e+003,3.401476e+001
1.714435e+003,3.383887e+001
1.716364e+003,3.405888e+001
1.718292e+003,3.517715e+001
1.720221e+003,3.488850e+001
1.722149e+003,3.445036e+001
1.724078e+003,3.458224e+001
1.726006e+003,3.450320e+001
1.727935e+003,3.430724e+001
1.729863e+003,3.435661e+001
1.731792e+003,3.409296e+001
1.733720e+003,3.456133e+001
1.735649e+003,3.532347e+001
1.737577e+003,3.448317e+001
1.739506e+003,3.459461e+001
1.741434e+003,3.464704e+001
1.743363e+003,3.460553e+001
1.745291e+003,3.459184e+001
1.747220e+003,3.443359e+001
1.749148e+003,3.468346e+001
1.751077e+003,3.507336e+001
1.753005e+003,3.510119e+001
1.754934e+003,3.461300e+001
1.756862e+003,3.481541e+001
1.758791e+003,3.475014e+001
1.760719e+003,3.456562e+001
1.762648e+003,3.504626e+001
1.764576e+003,3.487516e+001
1.766505e+003,3.457751e+001
1.768433e+003,3.468732e+001
1.770362e+003,3.440977e+001
1.772290e+003,3.503936e+001
1.774219e+003,3.527846e+001
1.776147e+003,3.503545e+001
1.778076e+003,3.478789e+001
1.780004e+003,3.482590e+001
1.781933e+003,3.498422e+001
1.783861e+003,3.484330e+001
1.785790e+003,3.499692e+001
1.787718e+003,3.481892e+001
1.789647e+003,3.451369e+001
1.791575e+003,3.477583e+001
1.793504e+003,3.523985e+001
1.795432e+003,3.499787e+001
1.797361e+003,3.485791e+001
1.799289e+003,3.477949e+001
1.801218e+003,3.507822e+001
1.803146e+003,3.512300e+001
1.805075e+003,3.499771e+001
1.807003e+003,3.489645e+001
1.808932e+003,3.489340e+001
1.810860e+003,3.504302e+001
1.812789e+003,3.517257e+001
1.814717e+003,3.502479e+001
1.816646e+003,3.504220e+001
1.818574e+003,3.506835e+001
1.820503e+003,3.502810e+001
1.822431e+003,3.484670e+001
1.824360e+003,3.493095e+001
1.826288e+003,3.508779e+001
1.828217e+003,3.478081e+001
1.830145e+003,3.532441e+001
1.832074e+003,3.536313e+001
1.834002e+003,3.506090e+001
1.835931e+003,3.501662e+001
1.837859e+003,3.511718e+001
1.839788e+003,3.504435e+001
1.841716e+003,3.468280e+001
1.843645e+003,3.495123e+001
1.845573e+003,3.541494e+001
1.847502e+003,3.524656e+001
1.849430e+003,3.521947e+001
1.851359e+003,3.509132e+001
1.853287e+003,3.506133e+001
1.855216e+003,3.507270e+001
1.857144e+003,3.508294e+001
1.859073e+003,3.509857e+001
1.861001e+003,3.512164e+001
1.862930e+003,3.505457e+001
1.864858e+003,3.483735e+001
1.866786e+003,3.469944e+001
1.868715e+003,3.520066e+001
1.870644e+003,3.541894e+001
1.872572e+003,3.514469e+001
1.874500e+003,3.504814e+001
1.876429e+003,3.500504e+001
1.878358e+003,3.501127e+001
1.880286e+003,3.500777e+001
1.882215e+003,3.496741e+001
1.884143e+003,3.496548e+001
1.886072e+003,3.492413e+001
1.888000e+003,3.477396e+001
1.889929e+003,3.505737e+001
1.891857e+003,3.500387e+001
1.893786e+003,3.482171e+001
1.895714e+003,3.495335e+001
1.897643e+003,3.493000e+001
1.899571e+003,3.485973e+001
1.901500e+003,3.482988e+001
1.903428e+003,3.479044e+001
1.905357e+003,3.474624e+001
1.907285e+003,3.465461e+001
1.909214e+003,3.473955e+001
1.911142e+003,3.481854e+001
1.913071e+003,3.469797e+001
1.914999e+003,3.455765e+001
1.916927e+003,3.453057e+001
1.918856e+003,3.483903e+001
1.920785e+003,3.459669e+001
1.922713e+003,3.468315e+001
1.924641e+003,3.482722e+001
1.926570e+003,3.471970e+001
1.928499e+003,3.466160e+001
1.930427e+003,3.460515e+001
1.932355e+003,3.462872e+001
1.934284e+003,3.463773e+001
1.936213e+003,3.461516e+001
1.938141e+003,3.461497e+001
1.940069e+003,3.448595e+001
1.941998e+003,3.455892e+001
1.943927e+003,3.471616e+001
1.945855e+003,3.461646e+001
1.947783e+003,3.460538e+001
1.949712e+003,3.454265e+001
1.951641e+003,3.453858e+001
1.953569e+003,3.451355e+001
1.955497e+003,3.454548e+001
1.957426e+003,3.448319e+001
1.959354e+003,3.446883e+001
1.961283e+003,3.449087e+001
1.963211e+003,3.449924e+001
1.965140e+003,3.436492e+001
1.967068e+003,3.447673e+001
1.968997e+003,3.459031e+001
1.970925e+003,3.452602e+001
1.972854e+003,3.448298e+001
1.974782e+003,3.445259e+001
1.976711e+003,3.445852e+001
1.978639e+003,3.444376e+001
1.980568e+003,3.443126e+001
1.982496e+003,3.446054e+001
1.984425e+003,3.446743e+001
1.986354e+003,3.442092e+001
1.988282e+003,3.443260e+001
1.990210e+003,3.436595e+001
1.992139e+003,3.447403e+001
1.994068e+003,3.450903e+001
1.995996e+003,3.440269e+001
1.997924e+003,3.442553e+001
1.999853e+003,3.442364e+001
2.001781e+003,3.439024e+001
2.003710e+003,3.435865e+001
2.005638e+003,3.437054e+001
2.007567e+003,3.435210e+001
2.009495e+003,3.436076e+001
2.011424e+003,3.432706e+001
2.013352e+003,3.427444e+001
2.015281e+003,3.421450e+001
2.017209e+003,3.427026e+001
2.019138e+003,3.429996e+001
2.021066e+003,3.427065e+001
2.022995e+003,3.426288e+001
2.024923e+003,3.424747e+001
2.026852e+003,3.423443e+001
2.028780e+003,3.424334e+001
2.030709e+003,3.417949e+001
2.032637e+003,3.415634e+001
2.034566e+003,3.415181e+001
2.036494e+003,3.415366e+001
2.038423e+003,3.412701e+001
2.040351e+003,3.412885e+001
2.042280e+003,3.418187e+001
2.044208e+003,3.417864e+001
2.046137e+003,3.413148e+001
2.048065e+003,3.410101e+001
2.049994e+003,3.409454e+001
2.051922e+003,3.411168e+001
2.053851e+003,3.407359e+001
2.055779e+003,3.403279e+001
2.057708e+003,3.403843e+001
2.059636e+003,3.407967e+001
2.061565e+003,3.409213e+001
2.063493e+003,3.406357e+001
2.065422e+003,3.409553e+001
2.067350e+003,3.408285e+001
2.069279e+003,3.403452e+001
2.071207e+003,3.406732e+001
2.073136e+003,3.407919e+001
2.075064e+003,3.404726e+001
2.076993e+003,3.403763e+001
2.078921e+003,3.406961e+001
2.080850e+003,3.407064e+001
2.082778e+003,3.406144e+001
2.084707e+003,3.402586e+001
2.086635e+003,3.401006e+001
2.088564e+003,3.401498e+001
2.090492e+003,3.402800e+001
2.092421e+003,3.401581e+001
2.094349e+003,3.403510e+001
2.096278e+003,3.403017e+001
2.098206e+003,3.402398e+001
2.100135e+003,3.400409e+001
2.102063e+003,3.400688e+001
2.103992e+003,3.400450e+001
2.105920e+003,3.400385e+001
2.107849e+003,3.400137e+001
2.109777e+003,3.400126e+001
2.111706e+003,3.399068e+001
2.113634e+003,3.397927e+001
2.115563e+003,3.397977e+001
2.117491e+003,3.395568e+001
2.119420e+003,3.393633e+001
2.121348e+003,3.394413e+001
2.123277e+003,3.394224e+001
2.125205e+003,3.395507e+001
2.127134e+003,3.395003e+001
2.129062e+003,3.394182e+001
2.130991e+003,3.391571e+001
2.132919e+003,3.388303e+001
2.134848e+003,3.384263e+001
2.136776e+003,3.384366e+001
2.138705e+003,3.385009e+001
2.140633e+003,3.383604e+001
2.142562e+003,3.382956e+001
2.144490e+003,3.382961e+001
2.146419e+003,3.381591e+001
2.148347e+003,3.381214e+001
2.150276e+003,3.379894e+001
2.152204e+003,3.379716e+001
2.154133e+003,3.375253e+001
2.156061e+003,3.374902e+001
2.157990e+003,3.375823e+001
2.159918e+003,3.373643e+001
2.161847e+003,3.373695e+001
2.163775e+003,3.376736e+001
2.165704e+003,3.376546e+001
2.167632e+003,3.372778e+001
2.169561e+003,3.366922e+001
2.171489e+003,3.367726e+001
2.173418e+003,3.368857e+001
2.175346e+003,3.369627e+001
2.177275e+003,3.369340e+001
2.179203e+003,3.369464e+001
2.181132e+003,3.367017e+001
2.183060e+003,3.364994e+001
2.184989e+003,3.364315e+001
2.186917e+003,3.361053e+001
2.188846e+003,3.359398e+001
2.190774e+003,3.361439e+001
2.192703e+003,3.360288e+001
2.194631e+003,3.358096e+001
2.196560e+003,3.356551e+001
2.198488e+003,3.358590e+001
2.200417e+003,3.358228e+001
2.202345e+003,3.355536e+001
2.204274e+003,3.352594e+001
2.206202e+003,3.352000e+001
2.208131e+003,3.351434e+001
2.210059e+003,3.348805e+001
2.211988e+003,3.349631e+001
2.213916e+003,3.350653e+001
2.215845e+003,3.347597e+001
2.217773e+003,3.346586e+001
2.219702e+003,3.345693e+001
2.221630e+003,3.345430e+001
2.223559e+003,3.345025e+001
2.225487e+003,3.345500e+001
2.227416e+003,3.343996e+001
2.229344e+003,3.344572e+001
2.231273e+003,3.343131e+001
2.233201e+003,3.339092e+001
2.235130e+003,3.337357e+001
2.237058e+003,3.336332e+001
2.238987e+003,3.333819e+001
2.240915e+003,3.335571e+001
2.242844e+003,3.336983e+001
2.244772e+003,3.335385e+001
2.246701e+003,3.333453e+001
2.248629e+003,3.330293e+001
2.250558e+003,3.326653e+001
2.252486e+003,3.325557e+001
2.254415e+003,3.322362e+001
2.256343e+003,3.320146e+001
2.258272e+003,3.318519e+001
2.260200e+003,3.315504e+001
2.262129e+003,3.312883e+001
2.264057e+003,3.310413e+001
2.265986e+003,3.305921e+001
2.267914e+003,3.304219e+001
2.269843e+003,3.306452e+001
2.271771e+003,3.308767e+001
2.273700e+003,3.305947e+001
2.275628e+003,3.304535e+001
2.277557e+003,3.305434e+001
2.279485e+003,3.308311e+001
2.281414e+003,3.308295e+001
2.283342e+003,3.305334e+001
2.285271e+003,3.298679e+001
2.287199e+003,3.294634e+001
2.289128e+003,3.288853e+001
2.291056e+003,3.279302e+001
2.292985e+003,3.269479e+001
2.294913e+003,3.260757e+001
2.296842e+003,3.250286e+001
2.298770e+003,3.240792e+001
2.300699e+003,3.232602e+001
2.302627e+003,3.225621e+001
2.304556e+003,3.215168e+001
2.306484e+003,3.200254e+001
2.308413e+003,3.180660e+001
2.310341e+003,3.159352e+001
2.312270e+003,3.150490e+001
2.314198e+003,3.151127e+001
2.316127e+003,3.131950e+001
2.318055e+003,3.096268e+001
2.319984e+003,3.066263e+001
2.321912e+003,3.043298e+001
2.323841e+003,3.028008e+001
2.325769e+003,3.018735e+001
2.327698e+003,2.997889e+001
2.329626e+003,2.985037e+001
2.331555e+003,2.985521e+001
2.333483e+003,2.979571e+001
2.335412e+003,2.965946e+001
2.337340e+003,2.950788e+001
2.339269e+003,2.939423e+001
2.341197e+003,2.928860e+001
2.343126e+003,2.944363e+001
2.345054e+003,2.999768e+001
2.346983e+003,3.061287e+001
2.348911e+003,3.038889e+001
2.350840e+003,2.967926e+001
2.352768e+003,2.909842e+001
2.354697e+003,2.855136e+001
2.356625e+003,2.804052e+001
2.358554e+003,2.782006e+001
2.360482e+003,2.805600e+001
2.362411e+003,2.825167e+001
2.364339e+003,2.865715e+001
2.366268e+003,2.900439e+001
2.368196e+003,2.944542e+001
2.370125e+003,2.995779e+001
2.372053e+003,3.050431e+001
2.373982e+003,3.098332e+001
2.375910e+003,3.137915e+001
2.377839e+003,3.168546e+001
2.379767e+003,3.199594e+001
2.381696e+003,3.224648e+001
2.383624e+003,3.241024e+001
2.385553e+003,3.249924e+001
2.387481e+003,3.257400e+001
2.389410e+003,3.258044e+001
2.391338e+003,3.255433e+001
2.393267e+003,3.254226e+001
2.395195e+003,3.254346e+001
2.397124e+003,3.254086e+001
2.399052e+003,3.255183e+001
2.400981e+003,3.251382e+001
2.402909e+003,3.247129e+001
2.404838e+003,3.247569e+001
2.406766e+003,3.248498e+001
2.408695e+003,3.249068e+001
2.410623e+003,3.246610e+001
2.412552e+003,3.241404e+001
2.414480e+003,3.240765e+001
2.416409e+003,3.238661e+001
2.418337e+003,3.241110e+001
2.420266e+003,3.241236e+001
2.422194e+003,3.236629e+001
2.424123e+003,3.234259e+001
2.426051e+003,3.234576e+001
2.427980e+003,3.233772e+001
2.429908e+003,3.236368e+001
2.431837e+003,3.239123e+001
2.433765e+003,3.238668e+001
2.435694e+003,3.236949e+001
2.437622e+003,3.233670e+001
2.439551e+003,3.232106e+001
2.441479e+003,3.232162e+001
2.443408e+003,3.230717e+001
2.445336e+003,3.229027e+001
2.447265e+003,3.224625e+001
2.449193e+003,3.219817e+001
2.451122e+003,3.220327e+001
2.453050e+003,3.221952e+001
2.454979e+003,3.222641e+001
2.456907e+003,3.223112e+001
2.458836e+003,3.220634e+001
2.460764e+003,3.216547e+001
2.462693e+003,3.214848e+001
2.464621e+003,3.217058e+001
2.466550e+003,3.218524e+001
2.468478e+003,3.216797e+001
2.470406e+003,3.216270e+001
2.472335e+003,3.217577e+001
2.474264e+003,3.213172e+001
2.476192e+003,3.206324e+001
2.478121e+003,3.206359e+001
2.480049e+003,3.208072e+001
2.481978e+003,3.205584e+001
2.483906e+003,3.203790e+001
2.485834e+003,3.203743e+001
2.487763e+003,3.204464e+001
2.489692e+003,3.205458e+001
2.491620e+003,3.203592e+001
2.493549e+003,3.200811e+001
2.495477e+003,3.198218e+001
2.497406e+003,3.196348e+001
2.499334e+003,3.197135e+001
2.501262e+003,3.196722e+001
2.503191e+003,3.193580e+001
2.505120e+003,3.190970e+001
2.507048e+003,3.191173e+001
2.508977e+003,3.193639e+001
2.510905e+003,3.190205e+001
2.512833e+003,3.187807e+001
2.514762e+003,3.189005e+001
2.516690e+003,3.186688e+001
2.518619e+003,3.182727e+001
2.520548e+003,3.182413e+001
2.522476e+003,3.183762e+001
2.524405e+003,3.182096e+001
2.526333e+003,3.183161e+001
2.528261e+003,3.185118e+001
2.530190e+003,3.184659e+001
2.532119e+003,3.182516e+001
2.534047e+003,3.178947e+001
2.535976e+003,3.176006e+001
2.537904e+003,3.173692e+001
2.539833e+003,3.171347e+001
2.541761e+003,3.171716e+001
2.543689e+003,3.172452e+001
2.545618e+003,3.171538e+001
2.547547e+003,3.170951e+001
2.549475e+003,3.170273e+001
2.551404e+003,3.169930e+001
2.553332e+003,3.170359e+001
2.555260e+003,3.170473e+001
2.557189e+003,3.169366e+001
2.559117e+003,3.168666e+001
2.561046e+003,3.166822e+001
2.562975e+003,3.165438e+001
2.564903e+003,3.163509e+001
2.566832e+003,3.160890e+001
2.568760e+003,3.159898e+001
2.570688e+003,3.160862e+001
2.572617e+003,3.157844e+001
2.574545e+003,3.151648e+001
2.576474e+003,3.148455e+001
2.578403e+003,3.149326e+001
2.580331e+003,3.152796e+001
2.582260e+003,3.150390e+001
2.584188e+003,3.146770e+001
2.586116e+003,3.147822e+001
2.588045e+003,3.149679e+001
2.589973e+003,3.147453e+001
2.591902e+003,3.143564e+001
2.593831e+003,3.144152e+001
2.595759e+003,3.143344e+001
2.597688e+003,3.140462e+001
2.599616e+003,3.140634e+001
2.601544e+003,3.141509e+001
2.603473e+003,3.140489e+001
2.605401e+003,3.137327e+001
2.607330e+003,3.133729e+001
2.609259e+003,3.132627e+001
2.611187e+003,3.134507e+001
2.613115e+003,3.129890e+001
2.615044e+003,3.125900e+001
2.616972e+003,3.127188e+001
2.618901e+003,3.126053e+001
2.620830e+003,3.123299e+001
2.622758e+003,3.121934e+001
2.624687e+003,3.123874e+001
2.626615e+003,3.124114e+001
2.628543e+003,3.122275e+001
2.630472e+003,3.116949e+001
2.632400e+003,3.115650e+001
2.634329e+003,3.113506e+001
2.636258e+003,3.114562e+001
2.638186e+003,3.115703e+001
2.640115e+003,3.112729e+001
2.642043e+003,3.110717e+001
2.643971e+003,3.111420e+001
2.645900e+003,3.109622e+001
2.647828e+003,3.107220e+001
2.649757e+003,3.107917e+001
2.651686e+003,3.106827e+001
2.653614e+003,3.106427e+001
2.655542e+003,3.106251e+001
2.657471e+003,3.104771e+001
2.659399e+003,3.101739e+001
2.661328e+003,3.101772e+001
2.663256e+003,3.100443e+001
2.665185e+003,3.098267e+001
2.667114e+003,3.096919e+001
2.669042e+003,3.094905e+001
2.670970e+003,3.091965e+001
2.672899e+003,3.089530e+001
2.674827e+003,3.089943e+001
2.676756e+003,3.091500e+001
2.678684e+003,3.086641e+001
2.680613e+003,3.085148e+001
2.682542e+003,3.086284e+001
2.684470e+003,3.086369e+001
2.686398e+003,3.086085e+001
2.688327e+003,3.087283e+001
2.690255e+003,3.085492e+001
2.692184e+003,3.082802e+001
2.694112e+003,3.082073e+001
2.696041e+003,3.080130e+001
2.697969e+003,3.075505e+001
2.699898e+003,3.075171e+001
2.701826e+003,3.075745e+001
2.703755e+003,3.075834e+001
2.705683e+003,3.075194e+001
2.707612e+003,3.073216e+001
2.709540e+003,3.074374e+001
2.711469e+003,3.072426e+001
2.713397e+003,3.070941e+001
2.715326e+003,3.069896e+001
2.717254e+003,3.066438e+001
2.719183e+003,3.064977e+001
2.721111e+003,3.064281e+001
2.723040e+003,3.061496e+001
2.724969e+003,3.060708e+001
2.726897e+003,3.061505e+001
2.728825e+003,3.058732e+001
2.730754e+003,3.056902e+001
2.732682e+003,3.059164e+001
2.734611e+003,3.061507e+001
2.736539e+003,3.058273e+001
2.738468e+003,3.054320e+001
2.740396e+003,3.054954e+001
2.742325e+003,3.055622e+001
2.744253e+003,3.054438e+001
2.746182e+003,3.051613e+001
2.748110e+003,3.049771e+001
2.750039e+003,3.042666e+001
2.751967e+003,3.037193e+001
2.753896e+003,3.043986e+001
2.755824e+003,3.051524e+001
2.757753e+003,3.052220e+001
2.759681e+003,3.045171e+001
2.761610e+003,3.038747e+001
2.763538e+003,3.040437e+001
2.765467e+003,3.041338e+001
2.767395e+003,3.039548e+001
2.769324e+003,3.039086e+001
2.771252e+003,3.039910e+001
2.773181e+003,3.038473e+001
2.775109e+003,3.037293e+001
2.777038e+003,3.036231e+001
2.778966e+003,3.037076e+001
2.780895e+003,3.036830e+001
2.782823e+003,3.034553e+001
2.784752e+003,3.033011e+001
2.786680e+003,3.029495e+001
2.788609e+003,3.025299e+001
2.790537e+003,3.024054e+001
2.792466e+003,3.026919e+001
2.794394e+003,3.025936e+001
2.796323e+003,3.023846e+001
2.798251e+003,3.022602e+001
2.800180e+003,3.021025e+001
2.802108e+003,3.019110e+001
2.804037e+003,3.016674e+001
2.805965e+003,3.020330e+001
2.807894e+003,3.018752e+001
2.809822e+003,3.013543e+001
2.811751e+003,3.015168e+001
2.813679e+003,3.017500e+001
2.815608e+003,3.017063e+001
2.817536e+003,3.014431e+001
2.819465e+003,3.012787e+001
2.821393e+003,3.010322e+001
2.823322e+003,3.012162e+001
2.825250e+003,3.008680e+001
2.827179e+003,3.005273e+001
2.829107e+003,3.002981e+001
2.831036e+003,3.003184e+001
2.832964e+003,3.003054e+001
2.834893e+003,2.998972e+001
2.836821e+003,2.998064e+001
2.838750e+003,2.998457e+001
2.840678e+003,2.998033e+001
2.842607e+003,3.000473e+001
2.844535e+003,2.996809e+001
2.846464e+003,2.990965e+001
2.848392e+003,2.990485e+001
2.850321e+003,2.993501e+001
2.852249e+003,2.990050e+001
2.854178e+003,2.987352e+001
2.856106e+003,2.986041e+001
2.858035e+003,2.982838e+001
2.859963e+003,2.978533e+001
2.861892e+003,2.980006e+001
2.863820e+003,2.977815e+001
2.865749e+003,2.973604e+001
2.867677e+003,2.976933e+001
2.869606e+003,2.978827e+001
2.871534e+003,2.973815e+001
2.873463e+003,2.971371e+001
2.875391e+003,2.971092e+001
2.877320e+003,2.968196e+001
2.879248e+003,2.966874e+001
2.881177e+003,2.970500e+001
2.883105e+003,2.970111e+001
2.885034e+003,2.967430e+001
2.886962e+003,2.964812e+001
2.888891e+003,2.963269e+001
2.890819e+003,2.959750e+001
2.892748e+003,2.958436e+001
2.894676e+003,2.959418e+001
2.896605e+003,2.956314e+001
2.898533e+003,2.953669e+001
2.900462e+003,2.953472e+001
2.902390e+003,2.954244e+001
2.904319e+003,2.950112e+001
2.906247e+003,2.949232e+001
2.908176e+003,2.952028e+001
2.910104e+003,2.952577e+001
2.912033e+003,2.948503e+001
2.913961e+003,2.941817e+001
2.915890e+003,2.940031e+001
2.917818e+003,2.940340e+001
2.919747e+003,2.939367e+001
2.921675e+003,2.934984e+001
2.923604e+003,2.932329e+001
2.925532e+003,2.931173e+001
2.927461e+003,2.930744e+001
2.929389e+003,2.929991e+001
2.931318e+003,2.932308e+001
2.933246e+003,2.932068e+001
2.935175e+003,2.930570e+001
2.937103e+003,2.925877e+001
2.939032e+003,2.925839e+001
2.940960e+003,2.926162e+001
2.942889e+003,2.925391e+001
2.944817e+003,2.923311e+001
2.946746e+003,2.921036e+001
2.948674e+003,2.923088e+001
2.950603e+003,2.924722e+001
2.952531e+003,2.925418e+001
2.954460e+003,2.924282e+001
2.956388e+003,2.918611e+001
2.958317e+003,2.915554e+001
2.960245e+003,2.917098e+001
2.962174e+003,2.915078e+001
2.964102e+003,2.914288e+001
2.966031e+003,2.914959e+001
2.967959e+003,2.914069e+001
2.969888e+003,2.910685e+001
2.971816e+003,2.908456e+001
2.973745e+003,2.905425e+001
2.975673e+003,2.906398e+001
2.977602e+003,2.907549e+001
2.979530e+003,2.905787e+001
2.981459e+003,2.903368e+001
2.983387e+003,2.905211e+001
2.985316e+003,2.906487e+001
2.987244e+003,2.905124e+001
2.989173e+003,2.904023e+001
2.991101e+003,2.901010e+001
2.993030e+003,2.901698e+001
2.994958e+003,2.904634e+001
2.996887e+003,2.903818e+001
2.998815e+003,2.899545e+001
3.000744e+003,2.893774e+001
3.002672e+003,2.891922e+001
3.004601e+003,2.894737e+001
3.006529e+003,2.893692e+001
3.008458e+003,2.887817e+001
3.010386e+003,2.886106e+001
3.012315e+003,2.888883e+001
3.014243e+003,2.892320e+001
3.016172e+003,2.895826e+001
3.018100e+003,2.894118e+001
3.020029e+003,2.891332e+001
3.021957e+003,2.888439e+001
3.023886e+003,2.885192e+001
3.025814e+003,2.884037e+001
3.027743e+003,2.881604e+001
3.029671e+003,2.880210e+001
3.031600e+003,2.881708e+001
3.033528e+003,2.877807e+001
3.035457e+003,2.876168e+001
3.037385e+003,2.872750e+001
3.039314e+003,2.870237e+001
3.041242e+003,2.869742e+001
3.043171e+003,2.870543e+001
3.045099e+003,2.871690e+001
3.047028e+003,2.866736e+001
3.048956e+003,2.865507e+001
3.050885e+003,2.865536e+001
3.052813e+003,2.863891e+001
3.054742e+003,2.865563e+001
3.056670e+003,2.868234e+001
3.058599e+003,2.863523e+001
3.060527e+003,2.858951e+001
3.062456e+003,2.856242e+001
3.064384e+003,2.853386e+001
3.066313e+003,2.855642e+001
3.068241e+003,2.857453e+001
3.070170e+003,2.856165e+001
3.072098e+003,2.854883e+001
3.074027e+003,2.852860e+001
3.075955e+003,2.845022e+001
3.077884e+003,2.843778e+001
3.079812e+003,2.847296e+001
3.081741e+003,2.845180e+001
3.083669e+003,2.846984e+001
3.085598e+003,2.847247e+001
3.087526e+003,2.843103e+001
3.089455e+003,2.840581e+001
3.091383e+003,2.842810e+001
3.093312e+003,2.835307e+001
3.095240e+003,2.834992e+001
3.097169e+003,2.839031e+001
3.099097e+003,2.831884e+001
3.101026e+003,2.833007e+001
3.102954e+003,2.833940e+001
3.104883e+003,2.825927e+001
3.106811e+003,2.822450e+001
3.108740e+003,2.827122e+001
3.110668e+003,2.828908e+001
3.112597e+003,2.825436e+001
3.114525e+003,2.823778e+001
3.116454e+003,2.821046e+001
3.118382e+003,2.813641e+001
3.120311e+003,2.813256e+001
3.122239e+003,2.816968e+001
3.124167e+003,2.815754e+001
3.126096e+003,2.810419e+001
3.128025e+003,2.810223e+001
3.129953e+003,2.805015e+001
3.131882e+003,2.807078e+001
3.133810e+003,2.808873e+001
3.135739e+003,2.802570e+001
3.137667e+003,2.801860e+001
3.139595e+003,2.804812e+001
3.141524e+003,2.802218e+001
3.143453e+003,2.797192e+001
3.145381e+003,2.795413e+001
3.147310e+003,2.799327e+001
3.149238e+003,2.796472e+001
3.151167e+003,2.788580e+001
3.153095e+003,2.787458e+001
3.155023e+003,2.792511e+001
3.156952e+003,2.791042e+001
3.158881e+003,2.784974e+001
3.160809e+003,2.780336e+001
3.162738e+003,2.781184e+001
3.164666e+003,2.777091e+001
3.166594e+003,2.773991e+001
3.168523e+003,2.774024e+001
3.170452e+003,2.773576e+001
3.172380e+003,2.773202e+001
3.174309e+003,2.768252e+001
3.176237e+003,2.763698e+001
3.178166e+003,2.771035e+001
3.180094e+003,2.768090e+001
3.182022e+003,2.758633e+001
3.183951e+003,2.759122e+001
3.185880e+003,2.764775e+001
3.187808e+003,2.758181e+001
3.189737e+003,2.749623e+001
3.191665e+003,2.750208e+001
3.193594e+003,2.752043e+001
3.195522e+003,2.755482e+001
3.197450e+003,2.756913e+001
3.199379e+003,2.752175e+001
3.201308e+003,2.745835e+001
3.203236e+003,2.740524e+001
3.205165e+003,2.736328e+001
3.207093e+003,2.734626e+001
3.209021e+003,2.738939e+001
3.210950e+003,2.740107e+001
3.212878e+003,2.735344e+001
3.214807e+003,2.734857e+001
3.216736e+003,2.730118e+001
3.218664e+003,2.728571e+001
3.220593e+003,2.728412e+001
3.222521e+003,2.728998e+001
3.224449e+003,2.723599e+001
3.226378e+003,2.719222e+001
3.228306e+003,2.715267e+001
3.230235e+003,2.711627e+001
3.232164e+003,2.708692e+001
3.234092e+003,2.708616e+001
3.236021e+003,2.711582e+001
3.237949e+003,2.710949e+001
3.239877e+003,2.704128e+001
3.241806e+003,2.701439e+001
3.243734e+003,2.702912e+001
3.245663e+003,2.703908e+001
3.247592e+003,2.701912e+001
3.249520e+003,2.706061e+001
3.251448e+003,2.699972e+001
3.253377e+003,2.695928e+001
3.255305e+003,2.696884e+001
3.257234e+003,2.690958e+001
3.259162e+003,2.689270e+001
3.261091e+003,2.691534e+001
3.263020e+003,2.689602e+001
3.264948e+003,2.684916e+001
3.266876e+003,2.678957e+001
3.268805e+003,2.678455e+001
3.270733e+003,2.677883e+001
3.272662e+003,2.674619e+001
3.274591e+003,2.676783e+001
3.276519e+003,2.679529e+001
3.278448e+003,2.676851e+001
3.280376e+003,2.672208e+001
3.282304e+003,2.670852e+001
3.284233e+003,2.672169e+001
3.286161e+003,2.663138e+001
3.288090e+003,2.659997e+001
3.290019e+003,2.664321e+001
3.291947e+003,2.670044e+001
3.293875e+003,2.669449e+001
3.295804e+003,2.661012e+001
3.297732e+003,2.653449e+001
3.299661e+003,2.646570e+001
3.301589e+003,2.647369e+001
3.303518e+003,2.646614e+001
3.305447e+003,2.647194e+001
3.307375e+003,2.646636e+001
3.309303e+003,2.643848e+001
3.311232e+003,2.635051e+001
3.313160e+003,2.632329e+001
3.315089e+003,2.634383e+001
3.317017e+003,2.634765e+001
3.318946e+003,2.633613e+001
3.320875e+003,2.633142e+001
3.322803e+003,2.628737e+001
3.324731e+003,2.623009e+001
3.326660e+003,2.627611e+001
3.328588e+003,2.627706e+001
3.330517e+003,2.621889e+001
3.332445e+003,2.617624e+001
3.334374e+003,2.613801e+001
3.336302e+003,2.616644e+001
3.338231e+003,2.619784e+001
3.340159e+003,2.616437e+001
3.342088e+003,2.600655e+001
3.344016e+003,2.589624e+001
3.345945e+003,2.597754e+001
3.347873e+003,2.605810e+001
3.349802e+003,2.602207e+001
3.351730e+003,2.595350e+001
3.353659e+003,2.597561e+001
3.355587e+003,2.600349e+001
3.357516e+003,2.595661e+001
3.359444e+003,2.585352e+001
3.361373e+003,2.582702e+001
3.363302e+003,2.578088e+001
3.365230e+003,2.577459e+001
3.367158e+003,2.577382e+001
3.369087e+003,2.568857e+001
3.371015e+003,2.567399e+001
3.372944e+003,2.568579e+001
3.374872e+003,2.563647e+001
3.376801e+003,2.549200e+001
3.378729e+003,2.542847e+001
3.380658e+003,2.547227e+001
3.382586e+003,2.556345e+001
3.384515e+003,2.561092e+001
3.386443e+003,2.557145e+001
3.388372e+003,2.549809e+001
3.390300e+003,2.539967e+001
3.392229e+003,2.544691e+001
3.394157e+003,2.542956e+001
3.396086e+003,2.533372e+001
3.398014e+003,2.535427e+001
3.399943e+003,2.527545e+001
3.401871e+003,2.529541e+001
3.403800e+003,2.533047e+001
3.405728e+003,2.528149e+001
3.407657e+003,2.523847e+001
3.409585e+003,2.520072e+001
3.411514e+003,2.515744e+001
3.413442e+003,2.517240e+001
3.415371e+003,2.518411e+001
3.417299e+003,2.511577e+001
3.419228e+003,2.503777e+001
3.421156e+003,2.512433e+001
3.423085e+003,2.514061e+001
3.425013e+003,2.506843e+001
3.426942e+003,2.502353e+001
3.428870e+003,2.502705e+001
3.430799e+003,2.504056e+001
3.432727e+003,2.506742e+001
3.434656e+003,2.502689e+001
3.436584e+003,2.496825e+001
3.438513e+003,2.500375e+001
3.440441e+003,2.496255e+001
3.442370e+003,2.498362e+001
3.444298e+003,2.491236e+001
3.446227e+003,2.490552e+001
3.448155e+003,2.506890e+001
3.450084e+003,2.498011e+001
3.452012e+003,2.498087e+001
3.453941e+003,2.501332e+001
3.455869e+003,2.507579e+001
3.457798e+003,2.510352e+001
3.459726e+003,2.501384e+001
3.461655e+003,2.493676e+001
3.463583e+003,2.490464e+001
3.465512e+003,2.488435e+001
3.467440e+003,2.491796e+001
3.469369e+003,2.487949e+001
3.471297e+003,2.487795e+001
3.473226e+003,2.488591e+001
3.475154e+003,2.495486e+001
3.477083e+003,2.492838e+001
3.479011e+003,2.471586e+001
3.480940e+003,2.475319e+001
3.482868e+003,2.497081e+001
3.484797e+003,2.490638e+001
3.486725e+003,2.493917e+001
3.488654e+003,2.505408e+001
3.490582e+003,2.493830e+001
3.492511e+003,2.485812e+001
3.494439e+003,2.492115e+001
3.496368e+003,2.494054e+001
3.498296e+003,2.490531e+001
3.500225e+003,2.476661e+001
3.502153e+003,2.482854e+001
3.504082e+003,2.504601e+001
3.506010e+003,2.490309e+001
3.507939e+003,2.474492e+001
3.509867e+003,2.495535e+001
3.511796e+003,2.493459e+001
3.513724e+003,2.490087e+001
3.515653e+003,2.497037e+001
3.517581e+003,2.498425e+001
3.519510e+003,2.487019e+001
3.521438e+003,2.475573e+001
3.523367e+003,2.498742e+001
3.525295e+003,2.496881e+001
3.527224e+003,2.497430e+001
3.529152e+003,2.497715e+001
3.531081e+003,2.492704e+001
3.533009e+003,2.489882e+001
3.534938e+003,2.491986e+001
3.536866e+003,2.506016e+001
3.538795e+003,2.507527e+001
3.540723e+003,2.497272e+001
3.542652e+003,2.474947e+001
3.544580e+003,2.476744e+001
3.546509e+003,2.510840e+001
3.548437e+003,2.513055e+001
3.550366e+003,2.485524e+001
3.552294e+003,2.505453e+001
3.554223e+003,2.510744e+001
3.556151e+003,2.493178e+001
3.558080e+003,2.478555e+001
3.560008e+003,2.478788e+001
3.561937e+003,2.478642e+001
3.563865e+003,2.456632e+001
3.565794e+003,2.467928e+001
3.567722e+003,2.557973e+001
3.569651e+003,2.544782e+001
3.571579e+003,2.512145e+001
3.573508e+003,2.500413e+001
3.575436e+003,2.500963e+001
3.577365e+003,2.499128e+001
3.579293e+003,2.505333e+001
3.581222e+003,2.503151e+001
3.583150e+003,2.485538e+001
3.585079e+003,2.451741e+001
3.587007e+003,2.500086e+001
3.588936e+003,2.552556e+001
3.590864e+003,2.498886e+001
3.592793e+003,2.467933e+001
3.594721e+003,2.493914e+001
3.596650e+003,2.499656e+001
3.598578e+003,2.487008e+001
3.600507e+003,2.511450e+001
3.602435e+003,2.519888e+001
3.604364e+003,2.481142e+001
3.606292e+003,2.470049e+001
3.608221e+003,2.528203e+001
3.610149e+003,2.524662e+001
3.612078e+003,2.507619e+001
3.614006e+003,2.533047e+001
3.615935e+003,2.494375e+001
3.617863e+003,2.497594e+001
3.619792e+003,2.571151e+001
3.621720e+003,2.552498e+001
3.623649e+003,2.494172e+001
3.625577e+003,2.445219e+001
3.627506e+003,2.437573e+001
3.629434e+003,2.612353e+001
3.631363e+003,2.555477e+001
3.633291e+003,2.539824e+001
3.635220e+003,2.545981e+001
3.637148e+003,2.520440e+001
3.639077e+003,2.522563e+001
3.641005e+003,2.521120e+001
3.642934e+003,2.520436e+001
3.644862e+003,2.461188e+001
3.646791e+003,2.450253e+001
3.648719e+003,2.538797e+001
3.650648e+003,2.654219e+001
3.652576e+003,2.580318e+001
3.654505e+003,2.491663e+001
3.656433e+003,2.538481e+001
3.658362e+003,2.544498e+001
3.660290e+003,2.534408e+001
3.662219e+003,2.530398e+001
3.664147e+003,2.524697e+001
3.666076e+003,2.495338e+001
3.668004e+003,2.457902e+001
3.669933e+003,2.570805e+001
3.671861e+003,2.552773e+001
3.673790e+003,2.454451e+001
3.675718e+003,2.598303e+001
3.677647e+003,2.567768e+001
3.679575e+003,2.553203e+001
3.681504e+003,2.536660e+001
3.683432e+003,2.513603e+001
3.685361e+003,2.469579e+001
3.687289e+003,2.432133e+001
3.689218e+003,2.525647e+001
3.691146e+003,2.586564e+001
3.693075e+003,2.550620e+001
3.695003e+003,2.509084e+001
3.696932e+003,2.517641e+001
3.698860e+003,2.491664e+001
3.700789e+003,2.499369e+001
3.702717e+003,2.544001e+001
3.704646e+003,2.514252e+001
3.706574e+003,2.485633e+001
3.708503e+003,2.461578e+001
3.710431e+003,2.500723e+001
3.712360e+003,2.612294e+001
3.714288e+003,2.581952e+001
3.716217e+003,2.518879e+001
3.718145e+003,2.510407e+001
3.720074e+003,2.492707e+001
3.722002e+003,2.493926e+001
3.723931e+003,2.507892e+001
3.725859e+003,2.517678e+001
3.727788e+003,2.523005e+001
3.729716e+003,2.462692e+001
3.731645e+003,2.442874e+001
3.733573e+003,2.453060e+001
3.735502e+003,2.556782e+001
3.737430e+003,2.572574e+001
3.739359e+003,2.520256e+001
3.741287e+003,2.477937e+001
3.743216e+003,2.470773e+001
3.745144e+003,2.594352e+001
3.747073e+003,2.511254e+001
3.749001e+003,2.479535e+001
3.750930e+003,2.605210e+001
3.752858e+003,2.653611e+001
3.754787e+003,2.570000e+001
3.756715e+003,2.526396e+001
3.758644e+003,2.535899e+001
3.760572e+003,2.585337e+001
3.762500e+003,2.537499e+001
3.764429e+003,2.519824e+001
3.766358e+003,2.544283e+001
3.768286e+003,2.517936e+001
3.770215e+003,2.578275e+001
3.772143e+003,2.572717e+001
3.774072e+003,2.540153e+001
3.776000e+003,2.516055e+001
3.777928e+003,2.509445e+001
3.779857e+003,2.579265e+001
3.781786e+003,2.554136e+001
3.783714e+003,2.533981e+001
3.785643e+003,2.564593e+001
3.787571e+003,2.556454e+001
3.789500e+003,2.543488e+001
3.791428e+003,2.537291e+001
3.793356e+003,2.513873e+001
3.795285e+003,2.500974e+001
3.797214e+003,2.539435e+001
3.799142e+003,2.476824e+001
3.801071e+003,2.543612e+001
3.802999e+003,2.592974e+001
3.804927e+003,2.504379e+001
3.806856e+003,2.579724e+001
3.808785e+003,2.599391e+001
3.810713e+003,2.552837e+001
3.812642e+003,2.497389e+001
3.814570e+003,2.470941e+001
3.816499e+003,2.564886e+001
3.818427e+003,2.486042e+001
3.820355e+003,2.514145e+001
3.822284e+003,2.623244e+001
3.824213e+003,2.534294e+001
3.826141e+003,2.535259e+001
3.828070e+003,2.535925e+001
3.829998e+003,2.487787e+001
3.831927e+003,2.500911e+001
3.833855e+003,2.494842e+001
3.835783e+003,2.485112e+001
3.837712e+003,2.518834e+001
3.839641e+003,2.579780e+001
3.841569e+003,2.547158e+001
3.843498e+003,2.544396e+001
3.845426e+003,2.553952e+001
3.847354e+003,2.524059e+001
3.849283e+003,2.487781e+001
3.851211e+003,2.433055e+001
3.853140e+003,2.603770e+001
3.855069e+003,2.639926e+001
3.856997e+003,2.583614e+001
3.858926e+003,2.522887e+001
3.860854e+003,2.480719e+001
3.862782e+003,2.490770e+001
3.864711e+003,2.549363e+001
3.866639e+003,2.500137e+001
3.868568e+003,2.453990e+001
3.870497e+003,2.571904e+001
3.872425e+003,2.512954e+001
3.874354e+003,2.562715e+001
3.876282e+003,2.534309e+001
3.878210e+003,2.473608e+001
3.880139e+003,2.532418e+001
3.882067e+003,2.551054e+001
3.883996e+003,2.503544e+001
3.885925e+003,2.579620e+001
3.887853e+003,2.518894e+001
3.889781e+003,2.469573e+001
3.891710e+003,2.531629e+001
3.893638e+003,2.532563e+001
3.895567e+003,2.493129e+001
3.897495e+003,2.461497e+001
3.899424e+003,2.482941e+001
3.901353e+003,2.488542e+001
3.903281e+003,2.520813e+001
3.905209e+003,2.569056e+001
3.907138e+003,2.532277e+001
3.909066e+003,2.498646e+001
3.910995e+003,2.495528e+001
3.912924e+003,2.490652e+001
3.914852e+003,2.467578e+001
3.916781e+003,2.502672e+001
3.918709e+003,2.511199e+001
3.920637e+003,2.500096e+001
3.922566e+003,2.481832e+001
3.924494e+003,2.519867e+001
3.926423e+003,2.516623e+001
3.928352e+003,2.472319e+001
3.930280e+003,2.463046e+001
3.932208e+003,2.491028e+001
3.934137e+003,2.519498e+001
3.936065e+003,2.495212e+001
3.937994e+003,2.489057e+001
3.939922e+003,2.475171e+001
3.941851e+003,2.491129e+001
3.943780e+003,2.513309e+001
3.945708e+003,2.481913e+001
3.947636e+003,2.483501e+001
3.949565e+003,2.508395e+001
3.951493e+003,2.510700e+001
3.953422e+003,2.498229e+001
3.955350e+003,2.489304e+001
3.957279e+003,2.487029e+001
3.959208e+003,2.478135e+001
3.961136e+003,2.487087e+001
3.963064e+003,2.503181e+001
3.964993e+003,2.493957e+001
3.966921e+003,2.485914e+001
3.968850e+003,2.485542e+001
3.970778e+003,2.478607e+001
3.972707e+003,2.477783e+001
3.974635e+003,2.490221e+001
3.976564e+003,2.485957e+001
3.978492e+003,2.470505e+001
3.980421e+003,2.462495e+001
3.982349e+003,2.474178e+001
3.984278e+003,2.480285e+001
3.986206e+003,2.475886e+001
3.988135e+003,2.475243e+001
3.990063e+003,2.488124e+001
3.991992e+003,2.493552e+001
3.993920e+003,2.488359e+001
3.995849e+003,2.480833e+001
3.997777e+003,2.472245e+001
3.999706e+003,2.464970e+001
