3.991992e+002,5.084502e+001
4.011277e+002,4.483413e+001
4.030562e+002,4.041640e+001
4.049847e+002,3.676750e+001
4.069132e+002,3.289196e+001
4.088417e+002,2.777467e+001
4.107702e+002,2.376279e+001
4.126987e+002,2.144171e+001
4.146272e+002,2.087977e+001
4.165557e+002,2.041373e+001
4.184842e+002,1.933952e+001
4.204127e+002,1.615321e+001
4.223412e+002,1.494121e+001
4.242697e+002,1.489657e+001
4.261982e+002,1.460971e+001
4.281267e+002,1.491186e+001
4.300552e+002,1.553489e+001
4.319837e+002,1.596688e+001
4.339122e+002,1.661164e+001
4.358407e+002,1.644468e+001
4.377692e+002,1.593099e+001
4.396977e+002,1.597576e+001
4.416262e+002,1.612547e+001
4.435547e+002,1.590370e+001
4.454832e+002,1.533736e+001
4.474117e+002,1.485570e+001
4.493401e+002,1.479478e+001
4.512686e+002,1.432319e+001
4.531971e+002,1.358962e+001
4.551256e+002,1.276488e+001
4.570541e+002,1.223726e+001
4.589826e+002,1.188317e+001
4.609111e+002,1.208898e+001
4.628396e+002,1.152395e+001
4.647681e+002,1.088967e+001
4.666966e+002,1.086003e+001
4.686251e+002,1.099123e+001
4.705536e+002,1.111152e+001
4.724821e+002,1.157398e+001
4.744106e+002,1.201458e+001
4.763391e+002,1.254608e+001
4.782676e+002,1.293847e+001
4.801961e+002,1.373948e+001
4.821246e+002,1.439449e+001
4.840531e+002,1.489583e+001
4.859816e+002,1.573789e+001
4.879101e+002,1.687956e+001
4.898386e+002,1.804290e+001
4.917671e+002,2.011930e+001
4.936956e+002,2.287510e+001
4.956241e+002,2.611321e+001
4.975526e+002,3.005622e+001
4.994811e+002,3.408419e+001
5.014096e+002,3.823316e+001
5.033381e+002,4.273222e+001
5.052666e+002,4.582219e+001
5.071951e+002,4.737463e+001
5.091236e+002,4.738289e+001
5.110521e+002,4.683048e+001
5.129806e+002,4.690369e+001
5.149091e+002,4.816605e+001
5.168376e+002,5.072964e+001
5.187661e+002,5.356765e+001
5.206946e+002,5.577228e+001
5.226231e+002,5.709733e+001
5.245516e+002,5.799622e+001
5.264801e+002,5.874383e+001
5.284086e+002,5.990479e+001
5.303371e+002,6.210884e+001
5.322656e+002,6.532076e+001
5.341941e+002,6.900411e+001
5.361226e+002,7.226862e+001
5.380511e+002,7.440455e+001
5.399796e+002,7.567001e+001
5.419081e+002,7.640590e+001
5.438365e+002,7.602005e+001
5.457651e+002,7.399437e+001
5.476936e+002,6.961813e+001
5.496221e+002,6.323465e+001
5.515506e+002,5.562869e+001
5.534791e+002,4.743274e+001
5.554076e+002,3.921114e+001
5.573361e+002,3.283598e+001
5.592646e+002,2.929339e+001
5.611931e+002,2.875408e+001
5.631216e+002,3.079035e+001
5.650500e+002,3.483850e+001
5.669786e+002,4.063808e+001
5.689070e+002,4.771349e+001
5.708356e+002,5.479100e+001
5.727640e+002,6.112956e+001
5.746926e+002,6.691478e+001
5.766210e+002,7.222571e+001
5.785496e+002,7.637778e+001
5.804780e+002,8.028901e+001
5.824066e+002,8.353803e+001
5.843350e+002,8.594682e+001
5.862635e+002,8.710040e+001
5.881920e+002,8.596204e+001
5.901205e+002,8.265353e+001
5.920490e+002,7.582858e+001
5.939775e+002,6.537013e+001
5.959060e+002,5.305647e+001
5.978345e+002,4.205828e+001
5.997631e+002,3.542066e+001
6.016915e+002,3.388072e+001
6.036201e+002,3.671191e+001
6.055485e+002,4.251180e+001
6.074771e+002,4.937941e+001
6.094055e+002,5.589749e+001
6.113340e+002,6.159276e+001
6.132625e+002,6.622499e+001
6.151910e+002,6.880704e+001
6.171195e+002,6.839555e+001
6.190480e+002,6.578425e+001
6.209765e+002,6.132607e+001
6.229050e+002,5.609712e+001
6.248335e+002,5.370692e+001
6.267620e+002,5.598307e+001
6.286905e+002,6.242109e+001
6.306190e+002,7.038774e+001
6.325475e+002,7.763393e+001
6.344760e+002,8.283048e+001
6.364045e+002,8.542591e+001
6.383330e+002,8.503175e+001
6.402615e+002,8.271100e+001
6.421900e+002,7.883430e+001
6.441185e+002,7.461965e+001
6.460470e+002,7.077791e+001
6.479755e+002,6.790885e+001
6.499040e+002,6.518620e+001
6.518325e+002,6.176656e+001
6.537610e+002,5.596214e+001
6.556895e+002,4.867406e+001
6.576180e+002,4.107631e+001
6.595465e+002,3.437633e+001
6.614750e+002,2.871336e+001
6.634035e+002,2.490464e+001
6.653320e+002,2.276886e+001
6.672605e+002,2.082861e+001
6.691890e+002,1.832169e+001
6.711175e+002,1.804003e+001
6.730460e+002,1.735741e+001
6.749745e+002,1.670570e+001
6.769030e+002,1.649330e+001
6.788315e+002,1.660830e+001
6.807599e+002,1.664859e+001
6.826885e+002,1.651076e+001
6.846169e+002,1.599385e+001
6.865455e+002,1.539792e+001
6.884739e+002,1.493501e+001
6.904025e+002,1.487587e+001
6.923309e+002,1.510828e+001
6.942595e+002,1.538996e+001
6.961880e+002,1.537829e+001
6.981165e+002,1.544812e+001
7.000450e+002,1.573957e+001
7.019734e+002,1.653308e+001
7.039020e+002,1.786726e+001
7.058304e+002,1.963482e+001
7.077590e+002,2.145699e+001
7.096874e+002,2.293192e+001
7.116160e+002,2.360719e+001
7.135444e+002,2.346643e+001
7.154730e+002,2.286380e+001
7.174014e+002,2.245543e+001
7.193300e+002,2.280228e+001
7.212584e+002,2.459403e+001
7.231870e+002,2.743368e+001
7.251154e+002,3.049456e+001
7.270439e+002,3.367440e+001
7.289724e+002,3.690686e+001
7.309009e+002,4.010233e+001
7.328294e+002,4.326324e+001
7.347579e+002,4.634233e+001
7.366864e+002,4.930081e+001
7.386149e+002,5.211474e+001
7.405434e+002,5.460870e+001
7.424719e+002,5.683591e+001
7.444004e+002,5.885321e+001
7.463289e+002,6.079477e+001
7.482574e+002,6.265699e+001
7.501859e+002,6.468146e+001
7.521144e+002,6.683986e+001
7.540429e+002,6.917274e+001
7.559714e+002,7.142216e+001
7.578999e+002,7.338937e+001
7.598284e+002,7.517617e+001
7.617569e+002,7.695956e+001
7.636854e+002,7.861570e+001
7.656139e+002,8.046209e+001
7.675424e+002,8.226889e+001
7.694709e+002,8.385609e+001
7.713994e+002,8.518052e+001
7.733279e+002,8.655117e+001
7.752564e+002,8.792956e+001
7.771849e+002,8.933357e+001
7.791134e+002,9.041689e+001
7.810419e+002,9.137300e+001
7.829704e+002,9.239557e+001
7.848989e+002,9.361018e+001
7.868274e+002,9.450472e+001
7.887559e+002,9.524764e+001
7.906844e+002,9.582458e+001
7.926129e+002,9.650134e+001
7.945414e+002,9.726968e+001
7.964699e+002,9.811849e+001
7.983984e+002,9.852837e+001
8.003269e+002,9.879545e+001
8.022554e+002,9.905358e+001
8.041839e+002,9.957592e+001
8.061124e+002,9.996574e+001
8.080409e+002,1.000000e+002
8.099694e+002,9.972794e+001
8.118979e+002,9.956667e+001
8.138264e+002,9.956030e+001
8.157549e+002,9.955773e+001
8.176833e+002,9.917357e+001
8.196119e+002,9.861995e+001
8.215403e+002,9.805032e+001
8.234689e+002,9.759505e+001
8.253973e+002,9.705878e+001
8.273259e+002,9.633753e+001
8.292543e+002,9.529009e+001
8.311829e+002,9.433480e+001
8.331113e+002,9.335197e+001
8.350399e+002,9.230098e+001
8.369683e+002,9.100103e+001
8.388969e+002,8.962663e+001
8.408253e+002,8.814180e+001
8.427538e+002,8.662775e+001
8.446824e+002,8.499393e+001
8.466108e+002,8.322214e+001
8.485394e+002,8.114449e+001
8.504678e+002,7.902686e+001
8.523964e+002,7.694662e+001
8.543248e+002,7.487496e+001
8.562534e+002,7.271355e+001
8.581818e+002,7.052463e+001
8.601104e+002,6.822020e+001
8.620388e+002,6.596260e+001
8.639673e+002,6.371163e+001
8.658958e+002,6.128328e+001
8.678243e+002,5.869660e+001
8.697528e+002,5.613788e+001
8.716813e+002,5.358765e+001
8.736098e+002,5.112185e+001
8.755383e+002,4.864696e+001
8.774668e+002,4.618335e+001
8.793953e+002,4.377137e+001
8.813238e+002,4.148685e+001
8.832523e+002,3.925778e+001
8.851808e+002,3.704205e+001
8.871093e+002,3.491631e+001
8.890378e+002,3.291520e+001
8.909663e+002,3.102725e+001
8.928948e+002,2.925477e+001
8.948233e+002,2.764453e+001
8.967518e+002,2.616696e+001
8.986803e+002,2.470970e+001
9.006088e+002,2.330173e+001
9.025373e+002,2.200085e+001
9.044658e+002,2.079806e+001
9.063943e+002,1.964376e+001
9.083228e+002,1.849431e+001
9.102513e+002,1.744508e+001
9.121798e+002,1.648993e+001
9.141083e+002,1.556443e+001
9.160368e+002,1.474182e+001
9.179653e+002,1.401450e+001
9.198938e+002,1.332086e+001
9.218223e+002,1.276825e+001
9.237508e+002,1.227466e+001
9.256793e+002,1.186603e+001
9.276078e+002,1.149303e+001
9.295363e+002,1.119994e+001
9.314648e+002,1.098115e+001
9.333932e+002,1.080091e+001
9.353218e+002,1.065157e+001
9.372502e+002,1.058423e+001
9.391788e+002,1.055106e+001
9.411072e+002,1.050274e+001
9.430358e+002,1.043500e+001
9.449643e+002,1.044326e+001
9.468928e+002,1.041516e+001
9.488213e+002,1.039434e+001
9.507498e+002,1.035394e+001
9.526783e+002,1.033503e+001
9.546068e+002,1.028735e+001
9.565353e+002,1.027317e+001
9.584637e+002,1.026138e+001
9.603923e+002,1.028231e+001
9.623207e+002,1.021976e+001
9.642493e+002,1.015548e+001
9.661777e+002,1.008510e+001
9.681063e+002,1.006843e+001
9.700347e+002,1.006026e+001
9.719633e+002,1.005854e+001
9.738917e+002,1.003318e+001
9.758203e+002,1.005346e+001
9.777487e+002,1.011561e+001
9.796772e+002,1.014658e+001
9.816057e+002,1.014214e+001
9.835342e+002,1.022146e+001
9.854627e+002,1.023772e+001
9.873912e+002,1.023196e+001
9.893197e+002,1.023952e+001
9.912482e+002,1.024569e+001
9.931768e+002,1.019423e+001
9.951052e+002,1.016016e+001
9.970338e+002,1.014073e+001
9.989622e+002,1.011462e+001
1.000891e+003,1.007444e+001
1.002819e+003,1.005337e+001
1.004748e+003,1.000665e+001
1.006676e+003,1.000913e+001
1.008605e+003,1.000000e+001
1.010533e+003,1.004918e+001
1.012462e+003,1.008419e+001
1.014390e+003,1.012733e+001
1.016319e+003,1.013390e+001
1.018247e+003,1.020422e+001
1.020176e+003,1.025798e+001
1.022104e+003,1.033738e+001
1.024033e+003,1.037538e+001
1.025961e+003,1.039091e+001
1.027890e+003,1.041458e+001
1.029818e+003,1.048137e+001
1.031747e+003,1.054545e+001
1.033675e+003,1.062357e+001
1.035604e+003,1.067610e+001
1.037532e+003,1.073295e+001
1.039461e+003,1.075466e+001
1.041389e+003,1.080374e+001
1.043318e+003,1.090002e+001
1.045246e+003,1.108085e+001
1.047175e+003,1.121328e+001
1.049103e+003,1.137949e+001
1.051032e+003,1.152827e+001
1.052960e+003,1.169125e+001
1.054889e+003,1.182869e+001
1.056817e+003,1.197990e+001
1.058746e+003,1.211621e+001
1.060674e+003,1.227028e+001
1.062603e+003,1.240840e+001
1.064531e+003,1.253160e+001
1.066460e+003,1.254395e+001
1.068388e+003,1.256740e+001
1.070317e+003,1.256383e+001
1.072245e+003,1.254712e+001
1.074174e+003,1.254279e+001
1.076102e+003,1.261647e+001
1.078031e+003,1.269252e+001
1.079959e+003,1.274290e+001
1.081888e+003,1.282623e+001
1.083816e+003,1.302989e+001
1.085745e+003,1.319041e+001
1.087673e+003,1.336153e+001
1.089602e+003,1.354685e+001
1.091530e+003,1.376297e+001
1.093459e+003,1.392701e+001
1.095387e+003,1.410165e+001
1.097316e+003,1.428239e+001
1.099244e+003,1.448265e+001
1.101173e+003,1.459933e+001
1.103101e+003,1.461532e+001
1.105030e+003,1.455206e+001
1.106958e+003,1.444376e+001
1.108887e+003,1.421692e+001
1.110815e+003,1.397112e+001
1.112744e+003,1.374145e+001
1.114672e+003,1.351963e+001
1.116601e+003,1.330526e+001
1.118529e+003,1.317901e+001
1.120458e+003,1.307751e+001
1.122386e+003,1.305554e+001
1.124315e+003,1.310443e+001
1.126243e+003,1.321256e+001
1.128172e+003,1.333328e+001
1.130100e+003,1.353575e+001
1.132029e+003,1.369479e+001
1.133957e+003,1.387283e+001
1.135886e+003,1.404348e+001
1.137814e+003,1.427125e+001
1.139743e+003,1.449900e+001
1.141671e+003,1.468152e+001
1.143600e+003,1.476760e+001
1.145528e+003,1.486427e+001
1.147457e+003,1.492198e+001
1.149385e+003,1.497262e+001
1.151314e+003,1.498298e+001
1.153242e+003,1.500367e+001
1.155171e+003,1.507016e+001
1.157099e+003,1.520992e+001
1.159028e+003,1.538713e+001
1.160956e+003,1.560303e+001
1.162885e+003,1.577838e+001
1.164813e+003,1.601038e+001
1.166742e+003,1.620479e+001
1.168670e+003,1.642610e+001
1.170599e+003,1.667201e+001
1.172527e+003,1.693743e+001
1.174456e+003,1.717971e+001
1.176384e+003,1.743234e+001
1.178313e+003,1.766543e+001
1.180241e+003,1.790739e+001
1.182170e+003,1.811352e+001
1.184098e+003,1.834545e+001
1.186027e+003,1.858612e+001
1.187955e+003,1.879413e+001
1.189884e+003,1.897113e+001
1.191812e+003,1.918171e+001
1.193741e+003,1.939367e+001
1.195669e+003,1.961944e+001
1.197598e+003,1.979452e+001
1.199526e+003,1.997174e+001
1.201455e+003,2.013485e+001
1.203383e+003,2.031301e+001
1.205312e+003,2.048952e+001
1.207240e+003,2.067900e+001
1.209169e+003,2.086433e+001
1.211097e+003,2.102966e+001
1.213026e+003,2.117331e+001
1.214954e+003,2.134867e+001
1.216883e+003,2.149586e+001
1.218811e+003,2.167100e+001
1.220740e+003,2.182999e+001
1.222668e+003,2.197865e+001
1.224597e+003,2.214301e+001
1.226525e+003,2.231029e+001
1.228453e+003,2.244796e+001
1.230382e+003,2.260181e+001
1.232311e+003,2.276495e+001
1.234239e+003,2.294798e+001
1.236167e+003,2.311010e+001
1.238096e+003,2.328329e+001
1.240025e+003,2.342289e+001
1.241953e+003,2.355064e+001
1.243882e+003,2.367249e+001
1.245810e+003,2.381726e+001
1.247739e+003,2.394720e+001
1.249667e+003,2.409753e+001
1.251596e+003,2.425761e+001
1.253524e+003,2.440518e+001
1.255453e+003,2.450347e+001
1.257381e+003,2.463472e+001
1.259310e+003,2.480651e+001
1.261238e+003,2.495727e+001
1.263167e+003,2.502344e+001
1.265095e+003,2.514975e+001
1.267024e+003,2.528098e+001
1.268952e+003,2.541605e+001
1.270880e+003,2.554878e+001
1.272809e+003,2.564645e+001
1.274738e+003,2.571995e+001
1.276666e+003,2.584716e+001
1.278594e+003,2.597653e+001
1.280523e+003,2.608084e+001
1.282452e+003,2.616601e+001
1.284380e+003,2.625784e+001
1.286308e+003,2.637094e+001
1.288237e+003,2.649696e+001
1.290166e+003,2.656490e+001
1.292094e+003,2.665532e+001
1.294022e+003,2.672007e+001
1.295951e+003,2.681689e+001
1.297880e+003,2.689564e+001
1.299808e+003,2.698352e+001
1.301736e+003,2.707635e+001
1.303665e+003,2.716964e+001
1.305594e+003,2.724841e+001
1.307522e+003,2.736283e+001
1.309450e+003,2.747103e+001
1.311379e+003,2.760394e+001
1.313307e+003,2.769800e+001
1.315236e+003,2.772580e+001
1.317164e+003,2.781868e+001
1.319093e+003,2.798466e+001
1.321021e+003,2.799431e+001
1.322950e+003,2.796393e+001
1.324878e+003,2.801266e+001
1.326807e+003,2.808813e+001
1.328735e+003,2.816041e+001
1.330664e+003,2.824909e+001
1.332592e+003,2.830569e+001
1.334521e+003,2.838651e+001
1.336449e+003,2.858372e+001
1.338378e+003,2.892571e+001
1.340307e+003,2.895013e+001
1.342235e+003,2.871102e+001
1.344163e+003,2.866443e+001
1.346092e+003,2.874592e+001
1.348021e+003,2.883789e+001
1.349949e+003,2.889517e+001
1.351877e+003,2.894268e+001
1.353806e+003,2.903481e+001
1.355734e+003,2.906310e+001
1.357663e+003,2.910855e+001
1.359591e+003,2.930959e+001
1.361520e+003,2.962314e+001
1.363448e+003,2.957708e+001
1.365377e+003,2.938650e+001
1.367305e+003,2.946004e+001
1.369234e+003,2.954006e+001
1.371162e+003,2.957077e+001
1.373091e+003,2.980951e+001
1.375019e+003,2.987784e+001
1.376948e+003,2.974394e+001
1.378876e+003,2.975347e+001
1.380805e+003,2.976185e+001
1.382733e+003,2.976393e+001
1.384662e+003,2.989118e+001
1.386590e+003,3.018926e+001
1.388519e+003,3.019371e+001
1.390447e+003,3.008153e+001
1.392376e+003,3.017281e+001
1.394304e+003,3.050349e+001
1.396233e+003,3.062487e+001
1.398161e+003,3.062713e+001
1.400090e+003,3.045910e+001
1.402018e+003,3.032227e+001
1.403947e+003,3.046702e+001
1.405875e+003,3.044456e+001
1.407804e+003,3.036877e+001
1.409732e+003,3.049454e+001
1.411661e+003,3.056746e+001
1.413589e+003,3.054016e+001
1.415518e+003,3.074387e+001
1.417446e+003,3.116855e+001
1.419375e+003,3.125708e+001
1.421303e+003,3.097184e+001
1.423232e+003,3.102564e+001
1.425160e+003,3.093829e+001
1.427089e+003,3.090327e+001
1.429017e+003,3.112487e+001
1.430946e+003,3.116920e+001
1.432874e+003,3.112165e+001
1.434803e+003,3.135091e+001
1.436731e+003,3.158249e+001
1.438660e+003,3.129298e+001
1.440588e+003,3.115464e+001
1.442517e+003,3.116558e+001
1.444445e+003,3.127216e+001
1.446374e+003,3.149428e+001
1.448302e+003,3.160212e+001
1.450231e+003,3.152740e+001
1.452159e+003,3.161548e+001
1.454088e+003,3.189587e+001
1.456016e+003,3.276220e+001
1.457945e+003,3.295953e+001
1.459873e+003,3.198938e+001
1.461802e+003,3.170434e+001
1.463730e+003,3.194692e+001
1.465659e+003,3.195956e+001
1.467587e+003,3.171051e+001
1.469516e+003,3.182482e+001
1.471444e+003,3.253046e+001
1.473373e+003,3.287578e+001
1.475301e+003,3.237498e+001
1.477230e+003,3.198565e+001
1.479158e+003,3.183070e+001
1.481087e+003,3.193302e+001
1.483015e+003,3.188707e+001
1.484944e+003,3.200231e+001
1.486872e+003,3.243987e+001
1.488801e+003,3.297941e+001
1.490729e+003,3.269641e+001
1.492658e+003,3.216549e+001
1.494586e+003,3.232753e+001
1.496515e+003,3.286808e+001
1.498443e+003,3.278152e+001
1.500372e+003,3.249943e+001
1.502300e+003,3.244530e+001
1.504229e+003,3.277810e+001
1.506157e+003,3.420423e+001
1.508086e+003,3.425844e+001
1.510014e+003,3.322017e+001
1.511943e+003,3.286282e+001
1.513871e+003,3.288489e+001
1.515800e+003,3.339522e+001
1.517728e+003,3.356669e+001
1.519657e+003,3.368053e+001
1.521585e+003,3.430674e+001
1.523514e+003,3.382021e+001
1.525442e+003,3.367787e+001
1.527371e+003,3.341553e+001
1.529299e+003,3.306837e+001
1.531228e+003,3.314915e+001
1.533156e+003,3.365327e+001
1.535085e+003,3.340771e+001
1.537013e+003,3.340437e+001
1.538942e+003,3.438770e+001
1.540870e+003,3.550016e+001
1.542799e+003,3.460061e+001
1.544727e+003,3.394344e+001
1.546656e+003,3.325765e+001
1.548584e+003,3.326455e+001
1.550513e+003,3.336119e+001
1.552441e+003,3.334684e+001
1.554370e+003,3.373737e+001
1.556298e+003,3.410610e+001
1.558227e+003,3.489723e+001
1.560155e+003,3.412571e+001
1.562084e+003,3.353642e+001
1.564012e+003,3.345240e+001
1.565941e+003,3.335429e+001
1.567869e+003,3.352121e+001
1.569798e+003,3.378501e+001
1.571726e+003,3.332290e+001
1.573655e+003,3.341924e+001
1.575583e+003,3.395732e+001
1.577512e+003,3.365712e+001
1.579440e+003,3.315202e+001
1.581369e+003,3.299954e+001
1.583297e+003,3.298148e+001
1.585226e+003,3.298375e+001
1.587154e+003,3.296870e+001
1.589083e+003,3.300774e+001
1.591011e+003,3.303743e+001
1.592940e+003,3.308641e+001
1.594868e+003,3.314459e+001
1.596797e+003,3.302175e+001
1.598725e+003,3.293035e+001
1.600654e+003,3.302371e+001
1.602582e+003,3.309308e+001
1.604511e+003,3.302564e+001
1.606439e+003,3.308806e+001
1.608368e+003,3.316003e+001
1.610296e+003,3.302922e+001
1.612225e+003,3.296378e+001
1.614153e+003,3.316845e+001
1.616082e+003,3.357863e+001
1.618010e+003,3.329738e+001
1.619939e+003,3.307689e+001
1.621867e+003,3.332066e+001
1.623796e+003,3.336401e+001
1.625724e+003,3.308671e+001
1.627653e+003,3.309617e+001
1.629581e+003,3.289307e+001
1.631510e+003,3.279136e+001
1.633438e+003,3.306223e+001
1.635367e+003,3.387694e+001
1.637295e+003,3.360666e+001
1.639224e+003,3.301556e+001
1.641152e+003,3.285465e+001
1.643081e+003,3.295436e+001
1.645009e+003,3.348134e+001
1.646938e+003,3.432481e+001
1.648866e+003,3.365661e+001
1.650795e+003,3.353233e+001
1.652723e+003,3.421735e+001
1.654652e+003,3.375229e+001
1.656580e+003,3.316654e+001
1.658509e+003,3.294890e+001
1.660437e+003,3.307772e+001
1.662366e+003,3.336223e+001
1.664294e+003,3.311268e+001
1.666223e+003,3.306639e+001
1.668151e+003,3.351807e+001
1.670080e+003,3.381084e+001
1.672008e+003,3.345298e+001
1.673937e+003,3.344416e+001
1.675865e+003,3.336952e+001
1.677794e+003,3.316953e+001
1.679722e+003,3.339372e+001
1.681651e+003,3.368745e+001
1.683579e+003,3.437289e+001
1.685508e+003,3.404053e+001
1.687436e+003,3.365194e+001
1.689365e+003,3.352284e+001
1.691293e+003,3.325787e+001
1.693222e+003,3.329356e+001
1.695150e+003,3.394770e+001
1.697079e+003,3.453053e+001
1.699007e+003,3.451582e+001
1.700936e+003,3.419145e+001
1.702864e+003,3.392435e+001
1.704793e+003,3.409905e+001
1.706721e+003,3.390504e+001
1.708650e+003,3.356395e+001
1.710578e+003,3.349554e+001
1.712507e+003,3.362949e+001
1.714435e+003,3.426173e+001
1.716364e+003,3.493785e+001
1.718292e+003,3.448419e+001
1.720221e+003,3.368373e+001
1.722149e+003,3.354920e+001
1.724078e+003,3.353214e+001
1.726006e+003,3.344532e+001
1.727935e+003,3.358857e+001
1.729863e+003,3.399239e+001
1.731792e+003,3.434610e+001
1.733720e+003,3.483117e+001
1.735649e+003,3.428921e+001
1.737577e+003,3.408412e+001
1.739506e+003,3.422501e+001
1.741434e+003,3.413729e+001
1.743363e+003,3.425008e+001
1.745291e+003,3.432394e+001
1.747220e+003,3.461176e+001
1.749148e+003,3.477729e+001
1.751077e+003,3.444590e+001
1.753005e+003,3.398027e+001
1.754934e+003,3.391792e+001
1.756862e+003,3.413524e+001
1.758791e+003,3.407987e+001
1.760719e+003,3.420279e+001
1.762648e+003,3.418270e+001
1.764576e+003,3.392487e+001
1.766505e+003,3.402875e+001
1.768433e+003,3.431023e+001
1.770362e+003,3.466221e+001
1.772290e+003,3.499721e+001
1.774219e+003,3.451292e+001
1.776147e+003,3.420804e+001
1.778076e+003,3.416390e+001
1.780004e+003,3.434749e+001
1.781933e+003,3.423307e+001
1.783861e+003,3.415326e+001
1.785790e+003,3.411744e+001
1.787718e+003,3.409542e+001
1.789647e+003,3.439481e+001
1.791575e+003,3.489901e+001
1.793504e+003,3.470947e+001
1.795432e+003,3.449466e+001
1.797361e+003,3.442248e+001
1.799289e+003,3.448342e+001
1.801218e+003,3.449905e+001
1.803146e+003,3.430042e+001
1.805075e+003,3.419505e+001
1.807003e+003,3.423698e+001
1.808932e+003,3.437459e+001
1.810860e+003,3.447220e+001
1.812789e+003,3.431519e+001
1.814717e+003,3.419986e+001
1.816646e+003,3.424536e+001
1.818574e+003,3.423847e+001
1.820503e+003,3.425262e+001
1.822431e+003,3.437831e+001
1.824360e+003,3.456223e+001
1.826288e+003,3.452007e+001
1.828217e+003,3.470515e+001
1.830145e+003,3.489717e+001
1.832074e+003,3.450732e+001
1.834002e+003,3.437387e+001
1.835931e+003,3.445284e+001
1.837859e+003,3.448138e+001
1.839788e+003,3.443116e+001
1.841716e+003,3.459349e+001
1.843645e+003,3.492995e+001
1.845573e+003,3.484932e+001
1.847502e+003,3.463199e+001
1.849430e+003,3.445826e+001
1.851359e+003,3.435509e+001
1.853287e+003,3.435655e+001
1.855216e+003,3.434129e+001
1.857144e+003,3.438930e+001
1.859073e+003,3.442061e+001
1.861001e+003,3.440273e+001
1.862930e+003,3.439502e+001
1.864858e+003,3.448619e+001
1.866786e+003,3.482533e+001
1.868715e+003,3.509686e+001
1.870644e+003,3.469815e+001
1.872572e+003,3.439518e+001
1.874500e+003,3.431937e+001
1.876429e+003,3.431744e+001
1.878358e+003,3.432568e+001
1.880286e+003,3.430943e+001
1.882215e+003,3.430857e+001
1.884143e+003,3.433081e+001
1.886072e+003,3.431865e+001
1.888000e+003,3.442481e+001
1.889929e+003,3.447919e+001
1.891857e+003,3.430845e+001
1.893786e+003,3.433669e+001
1.895714e+003,3.432455e+001
1.897643e+003,3.419367e+001
1.899571e+003,3.415133e+001
1.901500e+003,3.412927e+001
1.903428e+003,3.409224e+001
1.905357e+003,3.410872e+001
1.907285e+003,3.420320e+001
1.909214e+003,3.424688e+001
1.911142e+003,3.410386e+001
1.913071e+003,3.399257e+001
1.914999e+003,3.401807e+001
1.916927e+003,3.419247e+001
1.918856e+003,3.421894e+001
1.920785e+003,3.416642e+001
1.922713e+003,3.426227e+001
1.924641e+003,3.407655e+001
1.926570e+003,3.398685e+001
1.928499e+003,3.399409e+001
1.930427e+003,3.396940e+001
1.932355e+003,3.397492e+001
1.934284e+003,3.397612e+001
1.936213e+003,3.396743e+001
1.938141e+003,3.400259e+001
1.940069e+003,3.408347e+001
1.941998e+003,3.424245e+001
1.943927e+003,3.418690e+001
1.945855e+003,3.409579e+001
1.947783e+003,3.401160e+001
1.949712e+003,3.398993e+001
1.951641e+003,3.399160e+001
1.953569e+003,3.399062e+001
1.955497e+003,3.398602e+001
1.957426e+003,3.395694e+001
1.959354e+003,3.397660e+001
1.961283e+003,3.399325e+001
1.963211e+003,3.398554e+001
1.965140e+003,3.404303e+001
1.967068e+003,3.412531e+001
1.968997e+003,3.403905e+001
1.970925e+003,3.398154e+001
1.972854e+003,3.393612e+001
1.974782e+003,3.391507e+001
1.976711e+003,3.393501e+001
1.978639e+003,3.396092e+001
1.980568e+003,3.396511e+001
1.982496e+003,3.396522e+001
1.984425e+003,3.397282e+001
1.986354e+003,3.400926e+001
1.988282e+003,3.405259e+001
1.990210e+003,3.409560e+001
1.992139e+003,3.414051e+001
1.994068e+003,3.401336e+001
1.995996e+003,3.394237e+001
1.997924e+003,3.394495e+001
1.999853e+003,3.394105e+001
2.001781e+003,3.389859e+001
2.003710e+003,3.388944e+001
2.005638e+003,3.388925e+001
2.007567e+003,3.388898e+001
2.009495e+003,3.390899e+001
2.011424e+003,3.389218e+001
2.013352e+003,3.385609e+001
2.015281e+003,3.389330e+001
2.017209e+003,3.398272e+001
2.019138e+003,3.393122e+001
2.021066e+003,3.386504e+001
2.022995e+003,3.382990e+001
2.024923e+003,3.380712e+001
2.026852e+003,3.379784e+001
2.028780e+003,3.379540e+001
2.030709e+003,3.379940e+001
2.032637e+003,3.379515e+001
2.034566e+003,3.379154e+001
2.036494e+003,3.379622e+001
2.038423e+003,3.381897e+001
2.040351e+003,3.384732e+001
2.042280e+003,3.380618e+001
2.044208e+003,3.374195e+001
2.046137e+003,3.374529e+001
2.048065e+003,3.374168e+001
2.049994e+003,3.373146e+001
2.051922e+003,3.374889e+001
2.053851e+003,3.376045e+001
2.055779e+003,3.374889e+001
2.057708e+003,3.373966e+001
2.059636e+003,3.373369e+001
2.061565e+003,3.371648e+001
2.063493e+003,3.375465e+001
2.065422e+003,3.380248e+001
2.067350e+003,3.374967e+001
2.069279e+003,3.373392e+001
2.071207e+003,3.375726e+001
2.073136e+003,3.375317e+001
2.075064e+003,3.371273e+001
2.076993e+003,3.370170e+001
2.078921e+003,3.371104e+001
2.080850e+003,3.371033e+001
2.082778e+003,3.369822e+001
2.084707e+003,3.368662e+001
2.086635e+003,3.370893e+001
2.088564e+003,3.371607e+001
2.090492e+003,3.371075e+001
2.092421e+003,3.369919e+001
2.094349e+003,3.369483e+001
2.096278e+003,3.366422e+001
2.098206e+003,3.364463e+001
2.100135e+003,3.367879e+001
2.102063e+003,3.369733e+001
2.103992e+003,3.367191e+001
2.105920e+003,3.365444e+001
2.107849e+003,3.365525e+001
2.109777e+003,3.366473e+001
2.111706e+003,3.368786e+001
2.113634e+003,3.368368e+001
2.115563e+003,3.365375e+001
2.117491e+003,3.363995e+001
2.119420e+003,3.365600e+001
2.121348e+003,3.366376e+001
2.123277e+003,3.365363e+001
2.125205e+003,3.363342e+001
2.127134e+003,3.360646e+001
2.129062e+003,3.361156e+001
2.130991e+003,3.362278e+001
2.132919e+003,3.361301e+001
2.134848e+003,3.361441e+001
2.136776e+003,3.361489e+001
2.138705e+003,3.362486e+001
2.140633e+003,3.363747e+001
2.142562e+003,3.363134e+001
2.144490e+003,3.359317e+001
2.146419e+003,3.356372e+001
2.148347e+003,3.358297e+001
2.150276e+003,3.359439e+001
2.152204e+003,3.357168e+001
2.154133e+003,3.358057e+001
2.156061e+003,3.358875e+001
2.157990e+003,3.354027e+001
2.159918e+003,3.350361e+001
2.161847e+003,3.350887e+001
2.163775e+003,3.352857e+001
2.165704e+003,3.353555e+001
2.167632e+003,3.352089e+001
2.169561e+003,3.351390e+001
2.171489e+003,3.352831e+001
2.173418e+003,3.352036e+001
2.175346e+003,3.349767e+001
2.177275e+003,3.348769e+001
2.179203e+003,3.347586e+001
2.181132e+003,3.348411e+001
2.183060e+003,3.349724e+001
2.184989e+003,3.348718e+001
2.186917e+003,3.347553e+001
2.188846e+003,3.345656e+001
2.190774e+003,3.344942e+001
2.192703e+003,3.346679e+001
2.194631e+003,3.345488e+001
2.196560e+003,3.345508e+001
2.198488e+003,3.346053e+001
2.200417e+003,3.344157e+001
2.202345e+003,3.343158e+001
2.204274e+003,3.343704e+001
2.206202e+003,3.343700e+001
2.208131e+003,3.341637e+001
2.210059e+003,3.339518e+001
2.211988e+003,3.341086e+001
2.213916e+003,3.342492e+001
2.215845e+003,3.342352e+001
2.217773e+003,3.339211e+001
2.219702e+003,3.339763e+001
2.221630e+003,3.341752e+001
2.223559e+003,3.341644e+001
2.225487e+003,3.340806e+001
2.227416e+003,3.341431e+001
2.229344e+003,3.339945e+001
2.231273e+003,3.336245e+001
2.233201e+003,3.333957e+001
2.235130e+003,3.333538e+001
2.237058e+003,3.334386e+001
2.238987e+003,3.334597e+001
2.240915e+003,3.331750e+001
2.242844e+003,3.327585e+001
2.244772e+003,3.325843e+001
2.246701e+003,3.325960e+001
2.248629e+003,3.324452e+001
2.250558e+003,3.321367e+001
2.252486e+003,3.319273e+001
2.254415e+003,3.317850e+001
2.256343e+003,3.311550e+001
2.258272e+003,3.305421e+001
2.260200e+003,3.301326e+001
2.262129e+003,3.299908e+001
2.264057e+003,3.299497e+001
2.265986e+003,3.294654e+001
2.267914e+003,3.289500e+001
2.269843e+003,3.290915e+001
2.271771e+003,3.291405e+001
2.273700e+003,3.288894e+001
2.275628e+003,3.289172e+001
2.277557e+003,3.291614e+001
2.279485e+003,3.294036e+001
2.281414e+003,3.299017e+001
2.283342e+003,3.298757e+001
2.285271e+003,3.289597e+001
2.287199e+003,3.275281e+001
2.289128e+003,3.255579e+001
2.291056e+003,3.236536e+001
2.292985e+003,3.221143e+001
2.294913e+003,3.201962e+001
2.296842e+003,3.181539e+001
2.298770e+003,3.161689e+001
2.300699e+003,3.141234e+001
2.302627e+003,3.122489e+001
2.304556e+003,3.096742e+001
2.306484e+003,3.055364e+001
2.308413e+003,3.014260e+001
2.310341e+003,2.978482e+001
2.312270e+003,2.950753e+001
2.314198e+003,2.935473e+001
2.316127e+003,2.904609e+001
2.318055e+003,2.845056e+001
2.319984e+003,2.783370e+001
2.321912e+003,2.734685e+001
2.323841e+003,2.703033e+001
2.325769e+003,2.669808e+001
2.327698e+003,2.626170e+001
2.329626e+003,2.597328e+001
2.331555e+003,2.584425e+001
2.333483e+003,2.575902e+001
2.335412e+003,2.561803e+001
2.337340e+003,2.547513e+001
2.339269e+003,2.524018e+001
2.341197e+003,2.494201e+001
2.343126e+003,2.506396e+001
2.345054e+003,2.578626e+001
2.346983e+003,2.702729e+001
2.348911e+003,2.736852e+001
2.350840e+003,2.645327e+001
2.352768e+003,2.519221e+001
2.354697e+003,2.409559e+001
2.356625e+003,2.326789e+001
2.358554e+003,2.280595e+001
2.360482e+003,2.271572e+001
2.362411e+003,2.305546e+001
2.364339e+003,2.347056e+001
2.366268e+003,2.399089e+001
2.368196e+003,2.481240e+001
2.370125e+003,2.582613e+001
2.372053e+003,2.691018e+001
2.373982e+003,2.790500e+001
2.375910e+003,2.882378e+001
2.377839e+003,2.964290e+001
2.379767e+003,3.044701e+001
2.381696e+003,3.125062e+001
2.383624e+003,3.192643e+001
2.385553e+003,3.234680e+001
2.387481e+003,3.257939e+001
2.389410e+003,3.268644e+001
2.391338e+003,3.271956e+001
2.393267e+003,3.271018e+001
2.395195e+003,3.270982e+001
2.397124e+003,3.272097e+001
2.399052e+003,3.271471e+001
2.400981e+003,3.271402e+001
2.402909e+003,3.269561e+001
2.404838e+003,3.266491e+001
2.406766e+003,3.266316e+001
2.408695e+003,3.266677e+001
2.410623e+003,3.265910e+001
2.412552e+003,3.264870e+001
2.414480e+003,3.263032e+001
2.416409e+003,3.259849e+001
2.418337e+003,3.257701e+001
2.420266e+003,3.257648e+001
2.422194e+003,3.257884e+001
2.424123e+003,3.258398e+001
2.426051e+003,3.258936e+001
2.427980e+003,3.258003e+001
2.429908e+003,3.256725e+001
2.431837e+003,3.254673e+001
2.433765e+003,3.252924e+001
2.435694e+003,3.251007e+001
2.437622e+003,3.249354e+001
2.439551e+003,3.250189e+001
2.441479e+003,3.248887e+001
2.443408e+003,3.245409e+001
2.445336e+003,3.247235e+001
2.447265e+003,3.249317e+001
2.449193e+003,3.247234e+001
2.451122e+003,3.244284e+001
2.453050e+003,3.243432e+001
2.454979e+003,3.247543e+001
2.456907e+003,3.249868e+001
2.458836e+003,3.244899e+001
2.460764e+003,3.239261e+001
2.462693e+003,3.239174e+001
2.464621e+003,3.238017e+001
2.466550e+003,3.237664e+001
2.468478e+003,3.238913e+001
2.470406e+003,3.239247e+001
2.472335e+003,3.238702e+001
2.474264e+003,3.237084e+001
2.476192e+003,3.234218e+001
2.478121e+003,3.231610e+001
2.480049e+003,3.231318e+001
2.481978e+003,3.230091e+001
2.483906e+003,3.226711e+001
2.485834e+003,3.226411e+001
2.487763e+003,3.229228e+001
2.489692e+003,3.228834e+001
2.491620e+003,3.229723e+001
2.493549e+003,3.228873e+001
2.495477e+003,3.224384e+001
2.497406e+003,3.223365e+001
2.499334e+003,3.226570e+001
2.501262e+003,3.227077e+001
2.503191e+003,3.221536e+001
2.505120e+003,3.218925e+001
2.507048e+003,3.221088e+001
2.508977e+003,3.222874e+001
2.510905e+003,3.221766e+001
2.512833e+003,3.218438e+001
2.514762e+003,3.216470e+001
2.516690e+003,3.216099e+001
2.518619e+003,3.215842e+001
2.520548e+003,3.213742e+001
2.522476e+003,3.215382e+001
2.524405e+003,3.214323e+001
2.526333e+003,3.212355e+001
2.528261e+003,3.209098e+001
2.530190e+003,3.208381e+001
2.532119e+003,3.210030e+001
2.534047e+003,3.210023e+001
2.535976e+003,3.210220e+001
2.537904e+003,3.208958e+001
2.539833e+003,3.208742e+001
2.541761e+003,3.206748e+001
2.543689e+003,3.207906e+001
2.545618e+003,3.207773e+001
2.547547e+003,3.205835e+001
2.549475e+003,3.203654e+001
2.551404e+003,3.203021e+001
2.553332e+003,3.204459e+001
2.555260e+003,3.204663e+001
2.557189e+003,3.204872e+001
2.559117e+003,3.203729e+001
2.561046e+003,3.200674e+001
2.562975e+003,3.197842e+001
2.564903e+003,3.199053e+001
2.566832e+003,3.200082e+001
2.568760e+003,3.197198e+001
2.570688e+003,3.196445e+001
2.572617e+003,3.196607e+001
2.574545e+003,3.193339e+001
2.576474e+003,3.191280e+001
2.578403e+003,3.190707e+001
2.580331e+003,3.190090e+001
2.582260e+003,3.188486e+001
2.584188e+003,3.187856e+001
2.586116e+003,3.189467e+001
2.588045e+003,3.190235e+001
2.589973e+003,3.190875e+001
2.591902e+003,3.192510e+001
2.593831e+003,3.189408e+001
2.595759e+003,3.187604e+001
2.597688e+003,3.185371e+001
2.599616e+003,3.184734e+001
2.601544e+003,3.185289e+001
2.603473e+003,3.184647e+001
2.605401e+003,3.183029e+001
2.607330e+003,3.181754e+001
2.609259e+003,3.180190e+001
2.611187e+003,3.179148e+001
2.613115e+003,3.179116e+001
2.615044e+003,3.178527e+001
2.616972e+003,3.175418e+001
2.618901e+003,3.175934e+001
2.620830e+003,3.179004e+001
2.622758e+003,3.174589e+001
2.624687e+003,3.169929e+001
2.626615e+003,3.170502e+001
2.628543e+003,3.170634e+001
2.630472e+003,3.170566e+001
2.632400e+003,3.170343e+001
2.634329e+003,3.171107e+001
2.636258e+003,3.168316e+001
2.638186e+003,3.166303e+001
2.640115e+003,3.167225e+001
2.642043e+003,3.167229e+001
2.643971e+003,3.165187e+001
2.645900e+003,3.160932e+001
2.647828e+003,3.158188e+001
2.649757e+003,3.157432e+001
2.651686e+003,3.157763e+001
2.653614e+003,3.157296e+001
2.655542e+003,3.156322e+001
2.657471e+003,3.154799e+001
2.659399e+003,3.155988e+001
2.661328e+003,3.158270e+001
2.663256e+003,3.157124e+001
2.665185e+003,3.158976e+001
2.667114e+003,3.158109e+001
2.669042e+003,3.154097e+001
2.670970e+003,3.152283e+001
2.672899e+003,3.152965e+001
2.674827e+003,3.150664e+001
2.676756e+003,3.148405e+001
2.678684e+003,3.148795e+001
2.680613e+003,3.149169e+001
2.682542e+003,3.150534e+001
2.684470e+003,3.150769e+001
2.686398e+003,3.148351e+001
2.688327e+003,3.147279e+001
2.690255e+003,3.146945e+001
2.692184e+003,3.146844e+001
2.694112e+003,3.144606e+001
2.696041e+003,3.144408e+001
2.697969e+003,3.143841e+001
2.699898e+003,3.139872e+001
2.701826e+003,3.138768e+001
2.703755e+003,3.142104e+001
2.705683e+003,3.143674e+001
2.707612e+003,3.143015e+001
2.709540e+003,3.140928e+001
2.711469e+003,3.135732e+001
2.713397e+003,3.132335e+001
2.715326e+003,3.132216e+001
2.717254e+003,3.131365e+001
2.719183e+003,3.130800e+001
2.721111e+003,3.130800e+001
2.723040e+003,3.128263e+001
2.724969e+003,3.127638e+001
2.726897e+003,3.127752e+001
2.728825e+003,3.127428e+001
2.730754e+003,3.126201e+001
2.732682e+003,3.124113e+001
2.734611e+003,3.126302e+001
2.736539e+003,3.125218e+001
2.738468e+003,3.121550e+001
2.740396e+003,3.119447e+001
2.742325e+003,3.119557e+001
2.744253e+003,3.119553e+001
2.746182e+003,3.114369e+001
2.748110e+003,3.109152e+001
2.750039e+003,3.112551e+001
2.751967e+003,3.116952e+001
2.753896e+003,3.117695e+001
2.755824e+003,3.115771e+001
2.757753e+003,3.112764e+001
2.759681e+003,3.112458e+001
2.761610e+003,3.112039e+001
2.763538e+003,3.114504e+001
2.765467e+003,3.113724e+001
2.767395e+003,3.108447e+001
2.769324e+003,3.106761e+001
2.771252e+003,3.107006e+001
2.773181e+003,3.104754e+001
2.775109e+003,3.104330e+001
2.777038e+003,3.104392e+001
2.778966e+003,3.101189e+001
2.780895e+003,3.099024e+001
2.782823e+003,3.099203e+001
2.784752e+003,3.101242e+001
2.786680e+003,3.100544e+001
2.788609e+003,3.099841e+001
2.790537e+003,3.097730e+001
2.792466e+003,3.099627e+001
2.794394e+003,3.099141e+001
2.796323e+003,3.096090e+001
2.798251e+003,3.096144e+001
2.800180e+003,3.097157e+001
2.802108e+003,3.095731e+001
2.804037e+003,3.092756e+001
2.805965e+003,3.090452e+001
2.807894e+003,3.090343e+001
2.809822e+003,3.094004e+001
2.811751e+003,3.093286e+001
2.813679e+003,3.089242e+001
2.815608e+003,3.087337e+001
2.817536e+003,3.087263e+001
2.819465e+003,3.085714e+001
2.821393e+003,3.083522e+001
2.823322e+003,3.085363e+001
2.825250e+003,3.084683e+001
2.827179e+003,3.081665e+001
2.829107e+003,3.079918e+001
2.831036e+003,3.081732e+001
2.832964e+003,3.080526e+001
2.834893e+003,3.075482e+001
2.836821e+003,3.071241e+001
2.838750e+003,3.072234e+001
2.840678e+003,3.076822e+001
2.842607e+003,3.074510e+001
2.844535e+003,3.068355e+001
2.846464e+003,3.067797e+001
2.848392e+003,3.066658e+001
2.850321e+003,3.063441e+001
2.852249e+003,3.063274e+001
2.854178e+003,3.066616e+001
2.856106e+003,3.064020e+001
2.858035e+003,3.059112e+001
2.859963e+003,3.057968e+001
2.861892e+003,3.056757e+001
2.863820e+003,3.054722e+001
2.865749e+003,3.051589e+001
2.867677e+003,3.051512e+001
2.869606e+003,3.052392e+001
2.871534e+003,3.049813e+001
2.873463e+003,3.050122e+001
2.875391e+003,3.054792e+001
2.877320e+003,3.054300e+001
2.879248e+003,3.048561e+001
2.881177e+003,3.044729e+001
2.883105e+003,3.046919e+001
2.885034e+003,3.048181e+001
2.886962e+003,3.046259e+001
2.888891e+003,3.042020e+001
2.890819e+003,3.044075e+001
2.892748e+003,3.044421e+001
2.894676e+003,3.039810e+001
2.896605e+003,3.038720e+001
2.898533e+003,3.035550e+001
2.900462e+003,3.030807e+001
2.902390e+003,3.034412e+001
2.904319e+003,3.037810e+001
2.906247e+003,3.036339e+001
2.908176e+003,3.031193e+001
2.910104e+003,3.030964e+001
2.912033e+003,3.031628e+001
2.913961e+003,3.028750e+001
2.915890e+003,3.024059e+001
2.917818e+003,3.023118e+001
2.919747e+003,3.022346e+001
2.921675e+003,3.023002e+001
2.923604e+003,3.022125e+001
2.925532e+003,3.018953e+001
2.927461e+003,3.017556e+001
2.929389e+003,3.016976e+001
2.931318e+003,3.017093e+001
2.933246e+003,3.019330e+001
2.935175e+003,3.021090e+001
2.937103e+003,3.021866e+001
2.939032e+003,3.017226e+001
2.940960e+003,3.014185e+001
2.942889e+003,3.017884e+001
2.944817e+003,3.020156e+001
2.946746e+003,3.017136e+001
2.948674e+003,3.012704e+001
2.950603e+003,3.013194e+001
2.952531e+003,3.015729e+001
2.954460e+003,3.012145e+001
2.956388e+003,3.006551e+001
2.958317e+003,3.007360e+001
2.960245e+003,3.012230e+001
2.962174e+003,3.013146e+001
2.964102e+003,3.012819e+001
2.966031e+003,3.011563e+001
2.967959e+003,3.008858e+001
2.969888e+003,3.007431e+001
2.971816e+003,3.006010e+001
2.973745e+003,3.005996e+001
2.975673e+003,3.005179e+001
2.977602e+003,3.006468e+001
2.979530e+003,3.001241e+001
2.981459e+003,2.997361e+001
2.983387e+003,2.999046e+001
2.985316e+003,3.000784e+001
2.987244e+003,3.002485e+001
2.989173e+003,2.999304e+001
2.991101e+003,2.996638e+001
2.993030e+003,2.999818e+001
2.994958e+003,3.001067e+001
2.996887e+003,3.001373e+001
2.998815e+003,3.003743e+001
3.000744e+003,2.999949e+001
3.002672e+003,2.999674e+001
3.004601e+003,3.002685e+001
3.006529e+003,3.000516e+001
3.008458e+003,2.999846e+001
3.010386e+003,3.001498e+001
3.012315e+003,3.000813e+001
3.014243e+003,3.001480e+001
3.016172e+003,3.003222e+001
3.018100e+003,3.001705e+001
3.020029e+003,3.004708e+001
3.021957e+003,3.007237e+001
3.023886e+003,3.005278e+001
3.025814e+003,3.003874e+001
3.027743e+003,3.002931e+001
3.029671e+003,3.001652e+001
3.031600e+003,3.004774e+001
3.033528e+003,3.005837e+001
3.035457e+003,3.000530e+001
3.037385e+003,2.996602e+001
3.039314e+003,2.996233e+001
3.041242e+003,2.993323e+001
3.043171e+003,2.990597e+001
3.045099e+003,2.991284e+001
3.047028e+003,2.993405e+001
3.048956e+003,2.997720e+001
3.050885e+003,2.997009e+001
3.052813e+003,2.991047e+001
3.054742e+003,2.988914e+001
3.056670e+003,2.992751e+001
3.058599e+003,2.989941e+001
3.060527e+003,2.986794e+001
3.062456e+003,2.987745e+001
3.064384e+003,2.990094e+001
3.066313e+003,2.989555e+001
3.068241e+003,2.986321e+001
3.070170e+003,2.980992e+001
3.072098e+003,2.978704e+001
3.074027e+003,2.982589e+001
3.075955e+003,2.984304e+001
3.077884e+003,2.985200e+001
3.079812e+003,2.985430e+001
3.081741e+003,2.980565e+001
3.083669e+003,2.976373e+001
3.085598e+003,2.976456e+001
3.087526e+003,2.975195e+001
3.089455e+003,2.970948e+001
3.091383e+003,2.971935e+001
3.093312e+003,2.978490e+001
3.095240e+003,2.978796e+001
3.097169e+003,2.976308e+001
3.099097e+003,2.975452e+001
3.101026e+003,2.978761e+001
3.102954e+003,2.976743e+001
3.104883e+003,2.971254e+001
3.106811e+003,2.970543e+001
3.108740e+003,2.971988e+001
3.110668e+003,2.971621e+001
3.112597e+003,2.967087e+001
3.114525e+003,2.968125e+001
3.116454e+003,2.970201e+001
3.118382e+003,2.969176e+001
3.120311e+003,2.964276e+001
3.122239e+003,2.965136e+001
3.124167e+003,2.964755e+001
3.126096e+003,2.959935e+001
3.128025e+003,2.960627e+001
3.129953e+003,2.961457e+001
3.131882e+003,2.962898e+001
3.133810e+003,2.965475e+001
3.135739e+003,2.962466e+001
3.137667e+003,2.956146e+001
3.139595e+003,2.951853e+001
3.141524e+003,2.950176e+001
3.143453e+003,2.949479e+001
3.145381e+003,2.945952e+001
3.147310e+003,2.941458e+001
3.149238e+003,2.941473e+001
3.151167e+003,2.943462e+001
3.153095e+003,2.944098e+001
3.155023e+003,2.942650e+001
3.156952e+003,2.938981e+001
3.158881e+003,2.938826e+001
3.160809e+003,2.939079e+001
3.162738e+003,2.939596e+001
3.164666e+003,2.939349e+001
3.166594e+003,2.938127e+001
3.168523e+003,2.936635e+001
3.170452e+003,2.933683e+001
3.172380e+003,2.933424e+001
3.174309e+003,2.932549e+001
3.176237e+003,2.934751e+001
3.178166e+003,2.937890e+001
3.180094e+003,2.930739e+001
3.182022e+003,2.922712e+001
3.183951e+003,2.922681e+001
3.185880e+003,2.921221e+001
3.187808e+003,2.915523e+001
3.189737e+003,2.916175e+001
3.191665e+003,2.920072e+001
3.193594e+003,2.921922e+001
3.195522e+003,2.920692e+001
3.197450e+003,2.921947e+001
3.199379e+003,2.917529e+001
3.201308e+003,2.910558e+001
3.203236e+003,2.906642e+001
3.205165e+003,2.903241e+001
3.207093e+003,2.906356e+001
3.209021e+003,2.909742e+001
3.210950e+003,2.910192e+001
3.212878e+003,2.908004e+001
3.214807e+003,2.904478e+001
3.216736e+003,2.900922e+001
3.218664e+003,2.901421e+001
3.220593e+003,2.902144e+001
3.222521e+003,2.900231e+001
3.224449e+003,2.895401e+001
3.226378e+003,2.895960e+001
3.228306e+003,2.893011e+001
3.230235e+003,2.884467e+001
3.232164e+003,2.883143e+001
3.234092e+003,2.882514e+001
3.236021e+003,2.889260e+001
3.237949e+003,2.894490e+001
3.239877e+003,2.891911e+001
3.241806e+003,2.886992e+001
3.243734e+003,2.887985e+001
3.245663e+003,2.885748e+001
3.247592e+003,2.878937e+001
3.249520e+003,2.876154e+001
3.251448e+003,2.879510e+001
3.253377e+003,2.885586e+001
3.255305e+003,2.880539e+001
3.257234e+003,2.879845e+001
3.259162e+003,2.879186e+001
3.261091e+003,2.878942e+001
3.263020e+003,2.882740e+001
3.264948e+003,2.878442e+001
3.266876e+003,2.870050e+001
3.268805e+003,2.870527e+001
3.270733e+003,2.867602e+001
3.272662e+003,2.864776e+001
3.274591e+003,2.867302e+001
3.276519e+003,2.865291e+001
3.278448e+003,2.859133e+001
3.280376e+003,2.858040e+001
3.282304e+003,2.859743e+001
3.284233e+003,2.859260e+001
3.286161e+003,2.859068e+001
3.288090e+003,2.859551e+001
3.290019e+003,2.859201e+001
3.291947e+003,2.853209e+001
3.293875e+003,2.841637e+001
3.295804e+003,2.845982e+001
3.297732e+003,2.854715e+001
3.299661e+003,2.848935e+001
3.301589e+003,2.844060e+001
3.303518e+003,2.841114e+001
3.305447e+003,2.838436e+001
3.307375e+003,2.841297e+001
3.309303e+003,2.843214e+001
3.311232e+003,2.843746e+001
3.313160e+003,2.844590e+001
3.315089e+003,2.838033e+001
3.317017e+003,2.834292e+001
3.318946e+003,2.827434e+001
3.320875e+003,2.824085e+001
3.322803e+003,2.824973e+001
3.324731e+003,2.825305e+001
3.326660e+003,2.826486e+001
3.328588e+003,2.822025e+001
3.330517e+003,2.818859e+001
3.332445e+003,2.820436e+001
3.334374e+003,2.819420e+001
3.336302e+003,2.818109e+001
3.338231e+003,2.814078e+001
3.340159e+003,2.810674e+001
3.342088e+003,2.808989e+001
3.344016e+003,2.807004e+001
3.345945e+003,2.802008e+001
3.347873e+003,2.799556e+001
3.349802e+003,2.798718e+001
3.351730e+003,2.793897e+001
3.353659e+003,2.792962e+001
3.355587e+003,2.795871e+001
3.357516e+003,2.788018e+001
3.359444e+003,2.786556e+001
3.361373e+003,2.791414e+001
3.363302e+003,2.794259e+001
3.365230e+003,2.794214e+001
3.367158e+003,2.789782e+001
3.369087e+003,2.782197e+001
3.371015e+003,2.778922e+001
3.372944e+003,2.775776e+001
3.374872e+003,2.768959e+001
3.376801e+003,2.764774e+001
3.378729e+003,2.766404e+001
3.380658e+003,2.765523e+001
3.382586e+003,2.759693e+001
3.384515e+003,2.759637e+001
3.386443e+003,2.760635e+001
3.388372e+003,2.757599e+001
3.390300e+003,2.751415e+001
3.392229e+003,2.752355e+001
3.394157e+003,2.753077e+001
3.396086e+003,2.752453e+001
3.398014e+003,2.750582e+001
3.399943e+003,2.746159e+001
3.401871e+003,2.743848e+001
3.403800e+003,2.740252e+001
3.405728e+003,2.743665e+001
3.407657e+003,2.749643e+001
3.409585e+003,2.748349e+001
3.411514e+003,2.739680e+001
3.413442e+003,2.739926e+001
3.415371e+003,2.745044e+001
3.417299e+003,2.746120e+001
3.419228e+003,2.749657e+001
3.421156e+003,2.752896e+001
3.423085e+003,2.744151e+001
3.425013e+003,2.732435e+001
3.426942e+003,2.731718e+001
3.428870e+003,2.732646e+001
3.430799e+003,2.732900e+001
3.432727e+003,2.737966e+001
3.434656e+003,2.739601e+001
3.436584e+003,2.737744e+001
3.438513e+003,2.734296e+001
3.440441e+003,2.734978e+001
3.442370e+003,2.742246e+001
3.444298e+003,2.742472e+001
3.446227e+003,2.743714e+001
3.448155e+003,2.740479e+001
3.450084e+003,2.736193e+001
3.452012e+003,2.730309e+001
3.453941e+003,2.729831e+001
3.455869e+003,2.731219e+001
3.457798e+003,2.725902e+001
3.459726e+003,2.732965e+001
3.461655e+003,2.741493e+001
3.463583e+003,2.738469e+001
3.465512e+003,2.736289e+001
3.467440e+003,2.731974e+001
3.469369e+003,2.729811e+001
3.471297e+003,2.727258e+001
3.473226e+003,2.729251e+001
3.475154e+003,2.731864e+001
3.477083e+003,2.727629e+001
3.479011e+003,2.737238e+001
3.480940e+003,2.747817e+001
3.482868e+003,2.747331e+001
3.484797e+003,2.743092e+001
3.486725e+003,2.746638e+001
3.488654e+003,2.741980e+001
3.490582e+003,2.733936e+001
3.492511e+003,2.737441e+001
3.494439e+003,2.743926e+001
3.496368e+003,2.738083e+001
3.498296e+003,2.734577e+001
3.500225e+003,2.743311e+001
3.502153e+003,2.766091e+001
3.504082e+003,2.764863e+001
3.506010e+003,2.751692e+001
3.507939e+003,2.758782e+001
3.509867e+003,2.763286e+001
3.511796e+003,2.754595e+001
3.513724e+003,2.746691e+001
3.515653e+003,2.744647e+001
3.517581e+003,2.752206e+001
3.519510e+003,2.754344e+001
3.521438e+003,2.759913e+001
3.523367e+003,2.767128e+001
3.525295e+003,2.761841e+001
3.527224e+003,2.768571e+001
3.529152e+003,2.772273e+001
3.531081e+003,2.757895e+001
3.533009e+003,2.746000e+001
3.534938e+003,2.753267e+001
3.536866e+003,2.761837e+001
3.538795e+003,2.758885e+001
3.540723e+003,2.761770e+001
3.542652e+003,2.774800e+001
3.544580e+003,2.792004e+001
3.546509e+003,2.794439e+001
3.548437e+003,2.776200e+001
3.550366e+003,2.773608e+001
3.552294e+003,2.788466e+001
3.554223e+003,2.775466e+001
3.556151e+003,2.768445e+001
3.558080e+003,2.769835e+001
3.560008e+003,2.767880e+001
3.561937e+003,2.772877e+001
3.563865e+003,2.799814e+001
3.565794e+003,2.850039e+001
3.567722e+003,2.842803e+001
3.569651e+003,2.791763e+001
3.571579e+003,2.777226e+001
3.573508e+003,2.786235e+001
3.575436e+003,2.793624e+001
3.577365e+003,2.791382e+001
3.579293e+003,2.784595e+001
3.581222e+003,2.783363e+001
3.583150e+003,2.789003e+001
3.585079e+003,2.803614e+001
3.587007e+003,2.842463e+001
3.588936e+003,2.826010e+001
3.590864e+003,2.797791e+001
3.592793e+003,2.792981e+001
3.594721e+003,2.800803e+001
3.596650e+003,2.800413e+001
3.598578e+003,2.795886e+001
3.600507e+003,2.803206e+001
3.602435e+003,2.800504e+001
3.604364e+003,2.786049e+001
3.606292e+003,2.800891e+001
3.608221e+003,2.833703e+001
3.610149e+003,2.839161e+001
3.612078e+003,2.856188e+001
3.614006e+003,2.876120e+001
3.615935e+003,2.865963e+001
3.617863e+003,2.884414e+001
3.619792e+003,2.872697e+001
3.621720e+003,2.814412e+001
3.623649e+003,2.792097e+001
3.625577e+003,2.805971e+001
3.627506e+003,2.838256e+001
3.629434e+003,2.871881e+001
3.631363e+003,2.835756e+001
3.633291e+003,2.821729e+001
3.635220e+003,2.821271e+001
3.637148e+003,2.822796e+001
3.639077e+003,2.820901e+001
3.641005e+003,2.829573e+001
3.642934e+003,2.842742e+001
3.644862e+003,2.864312e+001
3.646791e+003,2.933068e+001
3.648719e+003,3.008426e+001
3.650648e+003,2.959755e+001
3.652576e+003,2.893653e+001
3.654505e+003,2.876408e+001
3.656433e+003,2.883381e+001
3.658362e+003,2.861651e+001
3.660290e+003,2.846375e+001
3.662219e+003,2.843175e+001
3.664147e+003,2.843714e+001
3.666076e+003,2.850941e+001
3.668004e+003,2.887455e+001
3.669933e+003,2.955289e+001
3.671861e+003,2.926764e+001
3.673790e+003,2.928982e+001
3.675718e+003,2.986705e+001
3.677647e+003,2.916183e+001
3.679575e+003,2.880645e+001
3.681504e+003,2.854588e+001
3.683432e+003,2.842023e+001
3.685361e+003,2.858678e+001
3.687289e+003,2.903149e+001
3.689218e+003,2.964144e+001
3.691146e+003,2.904126e+001
3.693075e+003,2.837887e+001
3.695003e+003,2.816770e+001
3.696932e+003,2.814567e+001
3.698860e+003,2.814931e+001
3.700789e+003,2.827805e+001
3.702717e+003,2.826159e+001
3.704646e+003,2.804579e+001
3.706574e+003,2.811262e+001
3.708503e+003,2.852734e+001
3.710431e+003,2.924943e+001
3.712360e+003,2.929025e+001
3.714288e+003,2.871963e+001
3.716217e+003,2.835779e+001
3.718145e+003,2.823673e+001
3.720074e+003,2.823984e+001
3.722002e+003,2.833809e+001
3.723931e+003,2.838469e+001
3.725859e+003,2.840870e+001
3.727788e+003,2.820675e+001
3.729716e+003,2.819512e+001
3.731645e+003,2.879746e+001
3.733573e+003,2.929017e+001
3.735502e+003,2.924809e+001
3.737430e+003,2.903881e+001
3.739359e+003,2.897268e+001
3.741287e+003,2.900541e+001
3.743216e+003,2.900382e+001
3.745144e+003,2.941366e+001
3.747073e+003,2.943655e+001
3.749001e+003,2.975549e+001
3.750930e+003,2.992695e+001
3.752858e+003,2.908043e+001
3.754787e+003,2.860316e+001
3.756715e+003,2.847063e+001
3.758644e+003,2.846740e+001
3.760572e+003,2.827533e+001
3.762500e+003,2.809753e+001
3.764429e+003,2.822816e+001
3.766358e+003,2.831166e+001
3.768286e+003,2.828926e+001
3.770215e+003,2.836569e+001
3.772143e+003,2.810459e+001
3.774072e+003,2.783645e+001
3.776000e+003,2.777624e+001
3.777928e+003,2.804862e+001
3.779857e+003,2.816893e+001
3.781786e+003,2.795041e+001
3.783714e+003,2.801297e+001
3.785643e+003,2.805746e+001
3.787571e+003,2.785268e+001
3.789500e+003,2.776781e+001
3.791428e+003,2.771619e+001
3.793356e+003,2.778869e+001
3.795285e+003,2.805895e+001
3.797214e+003,2.827847e+001
3.799142e+003,2.836013e+001
3.801071e+003,2.872730e+001
3.802999e+003,2.844332e+001
3.804927e+003,2.821434e+001
3.806856e+003,2.838450e+001
3.808785e+003,2.808640e+001
3.810713e+003,2.781670e+001
3.812642e+003,2.782934e+001
3.814570e+003,2.814886e+001
3.816499e+003,2.849981e+001
3.818427e+003,2.835415e+001
3.820355e+003,2.847778e+001
3.822284e+003,2.828994e+001
3.824213e+003,2.795313e+001
3.826141e+003,2.799630e+001
3.828070e+003,2.795410e+001
3.829998e+003,2.782756e+001
3.831927e+003,2.806135e+001
3.833855e+003,2.813843e+001
3.835783e+003,2.818576e+001
3.837712e+003,2.852450e+001
3.839641e+003,2.870573e+001
3.841569e+003,2.826814e+001
3.843498e+003,2.810883e+001
3.845426e+003,2.787803e+001
3.847354e+003,2.773464e+001
3.849283e+003,2.788487e+001
3.851211e+003,2.840036e+001
3.853140e+003,2.902458e+001
3.855069e+003,2.842146e+001
3.856997e+003,2.796430e+001
3.858926e+003,2.772222e+001
3.860854e+003,2.769699e+001
3.862782e+003,2.798537e+001
3.864711e+003,2.820145e+001
3.866639e+003,2.790545e+001
3.868568e+003,2.797376e+001
3.870497e+003,2.831273e+001
3.872425e+003,2.808323e+001
3.874354e+003,2.798614e+001
3.876282e+003,2.764431e+001
3.878210e+003,2.755160e+001
3.880139e+003,2.793531e+001
3.882067e+003,2.802361e+001
3.883996e+003,2.794122e+001
3.885925e+003,2.788001e+001
3.887853e+003,2.767784e+001
3.889781e+003,2.771222e+001
3.891710e+003,2.799735e+001
3.893638e+003,2.775748e+001
3.895567e+003,2.752659e+001
3.897495e+003,2.772134e+001
3.899424e+003,2.807750e+001
3.901353e+003,2.820649e+001
3.903281e+003,2.833932e+001
3.905209e+003,2.806896e+001
3.907138e+003,2.761209e+001
3.909066e+003,2.738120e+001
3.910995e+003,2.733901e+001
3.912924e+003,2.737430e+001
3.914852e+003,2.747884e+001
3.916781e+003,2.756469e+001
3.918709e+003,2.750852e+001
3.920637e+003,2.741607e+001
3.922566e+003,2.752918e+001
3.924494e+003,2.769881e+001
3.926423e+003,2.752571e+001
3.928352e+003,2.745578e+001
3.930280e+003,2.748663e+001
3.932208e+003,2.745852e+001
3.934137e+003,2.741051e+001
3.936065e+003,2.738060e+001
3.937994e+003,2.736154e+001
3.939922e+003,2.738995e+001
3.941851e+003,2.749850e+001
3.943780e+003,2.748895e+001
3.945708e+003,2.742297e+001
3.947636e+003,2.751439e+001
3.949565e+003,2.754153e+001
3.951493e+003,2.742977e+001
3.953422e+003,2.726144e+001
3.955350e+003,2.717991e+001
3.957279e+003,2.723980e+001
3.959208e+003,2.724846e+001
3.961136e+003,2.732686e+001
3.963064e+003,2.726083e+001
3.964993e+003,2.716828e+001
3.966921e+003,2.720056e+001
3.968850e+003,2.719099e+001
3.970778e+003,2.716796e+001
3.972707e+003,2.716733e+001
3.974635e+003,2.724024e+001
3.976564e+003,2.721152e+001
3.978492e+003,2.707606e+001
3.980421e+003,2.704942e+001
3.982349e+003,2.706301e+001
3.984278e+003,2.703960e+001
3.986206e+003,2.702363e+001
3.988135e+003,2.703373e+001
3.990063e+003,2.708369e+001
3.991992e+003,2.699093e+001
3.993920e+003,2.695354e+001
3.995849e+003,2.701742e+001
3.997777e+003,2.701140e+001
3.999706e+003,2.700119e+001
