3.991992e+002,6.474145e+001
4.011277e+002,5.229854e+001
4.030562e+002,4.668261e+001
4.049847e+002,4.316156e+001
4.069132e+002,4.256942e+001
4.088417e+002,4.244513e+001
4.107702e+002,3.497872e+001
4.126987e+002,2.933549e+001
4.146272e+002,3.171786e+001
4.165557e+002,3.569000e+001
4.184842e+002,4.202888e+001
4.204127e+002,3.233342e+001
4.223412e+002,2.416259e+001
4.242697e+002,2.431808e+001
4.261982e+002,2.533688e+001
4.281267e+002,2.394233e+001
4.300552e+002,2.255024e+001
4.319837e+002,1.970477e+001
4.339122e+002,2.010614e+001
4.358407e+002,2.064579e+001
4.377692e+002,1.686744e+001
4.396977e+002,1.464623e+001
4.416262e+002,1.507292e+001
4.435547e+002,1.815511e+001
4.454832e+002,2.222059e+001
4.474117e+002,2.224443e+001
4.493401e+002,2.031495e+001
4.512686e+002,2.011969e+001
4.531971e+002,1.959372e+001
4.551256e+002,1.874659e+001
4.570541e+002,1.713440e+001
4.589826e+002,1.589048e+001
4.609111e+002,1.770656e+001
4.628396e+002,1.954130e+001
4.647681e+002,1.947755e+001
4.666966e+002,1.801067e+001
4.686251e+002,1.500062e+001
4.705536e+002,1.325314e+001
4.724821e+002,1.511180e+001
4.744106e+002,1.948281e+001
4.763391e+002,2.203831e+001
4.782676e+002,2.242006e+001
4.801961e+002,2.214286e+001
4.821246e+002,2.341538e+001
4.840531e+002,2.425389e+001
4.859816e+002,2.426210e+001
4.879101e+002,2.346352e+001
4.898386e+002,2.275390e+001
4.917671e+002,2.445846e+001
4.936956e+002,2.794360e+001
4.956241e+002,2.918199e+001
4.975526e+002,2.865827e+001
4.994811e+002,2.729240e+001
5.014096e+002,2.764458e+001
5.033381e+002,3.157891e+001
5.052666e+002,3.508661e+001
5.071951e+002,3.700468e+001
5.091236e+002,3.935870e+001
5.110521e+002,4.293161e+001
5.129806e+002,4.658146e+001
5.149091e+002,4.891932e+001
5.168376e+002,5.067516e+001
5.187661e+002,5.366171e+001
5.206946e+002,5.784827e+001
5.226231e+002,6.173761e+001
5.245516e+002,6.480501e+001
5.264801e+002,6.683099e+001
5.284086e+002,6.872044e+001
5.303371e+002,7.113479e+001
5.322656e+002,7.303892e+001
5.341941e+002,7.373985e+001
5.361226e+002,7.480227e+001
5.380511e+002,7.688157e+001
5.399796e+002,7.804396e+001
5.419081e+002,7.775965e+001
5.438365e+002,7.738816e+001
5.457651e+002,7.669788e+001
5.476936e+002,7.575675e+001
5.496221e+002,7.554612e+001
5.515506e+002,7.559403e+001
5.534791e+002,7.470152e+001
5.554076e+002,7.272920e+001
5.573361e+002,7.042543e+001
5.592646e+002,6.927681e+001
5.611931e+002,6.871924e+001
5.631216e+002,6.849881e+001
5.650500e+002,6.861876e+001
5.669786e+002,6.962900e+001
5.689070e+002,7.121759e+001
5.708356e+002,7.266653e+001
5.727640e+002,7.279334e+001
5.746926e+002,7.150790e+001
5.766210e+002,6.952390e+001
5.785496e+002,6.942442e+001
5.804780e+002,7.180841e+001
5.824066e+002,7.349145e+001
5.843350e+002,7.375542e+001
5.862635e+002,7.490431e+001
5.881920e+002,7.635780e+001
5.901205e+002,7.721729e+001
5.920490e+002,7.754037e+001
5.939775e+002,7.709675e+001
5.959060e+002,7.678166e+001
5.978345e+002,7.738635e+001
5.997631e+002,7.839758e+001
6.016915e+002,7.907552e+001
6.036201e+002,7.841322e+001
6.055485e+002,7.746513e+001
6.074771e+002,7.755708e+001
6.094055e+002,7.778911e+001
6.113340e+002,7.728060e+001
6.132625e+002,7.679157e+001
6.151910e+002,7.658860e+001
6.171195e+002,7.635478e+001
6.190480e+002,7.556088e+001
6.209765e+002,7.461285e+001
6.229050e+002,7.380322e+001
6.248335e+002,7.312632e+001
6.267620e+002,7.236964e+001
6.286905e+002,7.196786e+001
6.306190e+002,7.098390e+001
6.325475e+002,6.927028e+001
6.344760e+002,6.728902e+001
6.364045e+002,6.529742e+001
6.383330e+002,6.253003e+001
6.402615e+002,5.931622e+001
6.421900e+002,5.619655e+001
6.441185e+002,5.326847e+001
6.460470e+002,5.027613e+001
6.479755e+002,4.768393e+001
6.499040e+002,4.543722e+001
6.518325e+002,4.393774e+001
6.537610e+002,4.345799e+001
6.556895e+002,4.383848e+001
6.576180e+002,4.449630e+001
6.595465e+002,4.409985e+001
6.614750e+002,4.243271e+001
6.634035e+002,4.055336e+001
6.653320e+002,3.878226e+001
6.672605e+002,3.676682e+001
6.691890e+002,3.252551e+001
6.711175e+002,2.948946e+001
6.730460e+002,2.706656e+001
6.749745e+002,2.573782e+001
6.769030e+002,2.530225e+001
6.788315e+002,2.495694e+001
6.807599e+002,2.382088e+001
6.826885e+002,2.279879e+001
6.846169e+002,2.288593e+001
6.865455e+002,2.340225e+001
6.884739e+002,2.341094e+001
6.904025e+002,2.304124e+001
6.923309e+002,2.292735e+001
6.942595e+002,2.391244e+001
6.961880e+002,2.506753e+001
6.981165e+002,2.584441e+001
7.000450e+002,2.701493e+001
7.019734e+002,2.845552e+001
7.039020e+002,3.034829e+001
7.058304e+002,3.243979e+001
7.077590e+002,3.381671e+001
7.096874e+002,3.490903e+001
7.116160e+002,3.559206e+001
7.135444e+002,3.548952e+001
7.154730e+002,3.569273e+001
7.174014e+002,3.606792e+001
7.193300e+002,3.701112e+001
7.212584e+002,3.901620e+001
7.231870e+002,4.110183e+001
7.251154e+002,4.318220e+001
7.270439e+002,4.520463e+001
7.289724e+002,4.666408e+001
7.309009e+002,4.854487e+001
7.328294e+002,5.037861e+001
7.347579e+002,5.210282e+001
7.366864e+002,5.407724e+001
7.386149e+002,5.572750e+001
7.405434e+002,5.678875e+001
7.424719e+002,5.829782e+001
7.444004e+002,5.971537e+001
7.463289e+002,6.114805e+001
7.482574e+002,6.229196e+001
7.501859e+002,6.354038e+001
7.521144e+002,6.570355e+001
7.540429e+002,6.780193e+001
7.559714e+002,6.861560e+001
7.578999e+002,6.947443e+001
7.598284e+002,7.053464e+001
7.617569e+002,7.211705e+001
7.636854e+002,7.410061e+001
7.656139e+002,7.592049e+001
7.675424e+002,7.749294e+001
7.694709e+002,7.894803e+001
7.713994e+002,8.043347e+001
7.733279e+002,8.259735e+001
7.752564e+002,8.392043e+001
7.771849e+002,8.455126e+001
7.791134e+002,8.618353e+001
7.810419e+002,8.869672e+001
7.829704e+002,9.078378e+001
7.848989e+002,9.233022e+001
7.868274e+002,9.344721e+001
7.887559e+002,9.479454e+001
7.906844e+002,9.576413e+001
7.926129e+002,9.655961e+001
7.945414e+002,9.784507e+001
7.964699e+002,9.881070e+001
7.983984e+002,9.896806e+001
8.003269e+002,9.952309e+001
8.022554e+002,1.000000e+002
8.041839e+002,9.984135e+001
8.061124e+002,9.905899e+001
8.080409e+002,9.850940e+001
8.099694e+002,9.806120e+001
8.118979e+002,9.710464e+001
8.138264e+002,9.600133e+001
8.157549e+002,9.528387e+001
8.176833e+002,9.377165e+001
8.196119e+002,9.181942e+001
8.215403e+002,9.033080e+001
8.234689e+002,8.908926e+001
8.253973e+002,8.739630e+001
8.273259e+002,8.547863e+001
8.292543e+002,8.389311e+001
8.311829e+002,8.237674e+001
8.331113e+002,8.001001e+001
8.350399e+002,7.749581e+001
8.369683e+002,7.556570e+001
8.388969e+002,7.375554e+001
8.408253e+002,7.199091e+001
8.427538e+002,7.023303e+001
8.446824e+002,6.816096e+001
8.466108e+002,6.608009e+001
8.485394e+002,6.416780e+001
8.504678e+002,6.227658e+001
8.523964e+002,6.019301e+001
8.543248e+002,5.781554e+001
8.562534e+002,5.593805e+001
8.581818e+002,5.480849e+001
8.601104e+002,5.350989e+001
8.620388e+002,5.146355e+001
8.639673e+002,4.907816e+001
8.658958e+002,4.699891e+001
8.678243e+002,4.541416e+001
8.697528e+002,4.382907e+001
8.716813e+002,4.229200e+001
8.736098e+002,4.073756e+001
8.755383e+002,3.924263e+001
8.774668e+002,3.799384e+001
8.793953e+002,3.662563e+001
8.813238e+002,3.488049e+001
8.832523e+002,3.316612e+001
8.851808e+002,3.161376e+001
8.871093e+002,3.032373e+001
8.890378e+002,2.918941e+001
8.909663e+002,2.803488e+001
8.928948e+002,2.683181e+001
8.948233e+002,2.552880e+001
8.967518e+002,2.416722e+001
8.986803e+002,2.312367e+001
9.006088e+002,2.224928e+001
9.025373e+002,2.154721e+001
9.044658e+002,2.076433e+001
9.063943e+002,1.992093e+001
9.083228e+002,1.925404e+001
9.102513e+002,1.861826e+001
9.121798e+002,1.769856e+001
9.141083e+002,1.690910e+001
9.160368e+002,1.634114e+001
9.179653e+002,1.604545e+001
9.198938e+002,1.572775e+001
9.218223e+002,1.517728e+001
9.237508e+002,1.455801e+001
9.256793e+002,1.415811e+001
9.276078e+002,1.367036e+001
9.295363e+002,1.321673e+001
9.314648e+002,1.266645e+001
9.333932e+002,1.245247e+001
9.353218e+002,1.262261e+001
9.372502e+002,1.262391e+001
9.391788e+002,1.209894e+001
9.411072e+002,1.152828e+001
9.430358e+002,1.119632e+001
9.449643e+002,1.131168e+001
9.468928e+002,1.147068e+001
9.488213e+002,1.136421e+001
9.507498e+002,1.122243e+001
9.526783e+002,1.130787e+001
9.546068e+002,1.139771e+001
9.565353e+002,1.128805e+001
9.584637e+002,1.083596e+001
9.603923e+002,1.050515e+001
9.623207e+002,1.054501e+001
9.642493e+002,1.087116e+001
9.661777e+002,1.116616e+001
9.681063e+002,1.115252e+001
9.700347e+002,1.087434e+001
9.719633e+002,1.064528e+001
9.738917e+002,1.042310e+001
9.758203e+002,1.034989e+001
9.777487e+002,1.042735e+001
9.796772e+002,1.048452e+001
9.816057e+002,1.043087e+001
9.835342e+002,1.048514e+001
9.854627e+002,1.056326e+001
9.873912e+002,1.055198e+001
9.893197e+002,1.028677e+001
9.912482e+002,1.005139e+001
9.931768e+002,1.000000e+001
9.951052e+002,1.028381e+001
9.970338e+002,1.057574e+001
9.989622e+002,1.056569e+001
1.000891e+003,1.036073e+001
1.002819e+003,1.036030e+001
1.004748e+003,1.040251e+001
1.006676e+003,1.041303e+001
1.008605e+003,1.035207e+001
1.010533e+003,1.032680e+001
1.012462e+003,1.051190e+001
1.014390e+003,1.067314e+001
1.016319e+003,1.048429e+001
1.018247e+003,1.031983e+001
1.020176e+003,1.035511e+001
1.022104e+003,1.063978e+001
1.024033e+003,1.084753e+001
1.025961e+003,1.085383e+001
1.027890e+003,1.096407e+001
1.029818e+003,1.121054e+001
1.031747e+003,1.138276e+001
1.033675e+003,1.142268e+001
1.035604e+003,1.120921e+001
1.037532e+003,1.112774e+001
1.039461e+003,1.142186e+001
1.041389e+003,1.189365e+001
1.043318e+003,1.223516e+001
1.045246e+003,1.224475e+001
1.047175e+003,1.207293e+001
1.049103e+003,1.210048e+001
1.051032e+003,1.224292e+001
1.052960e+003,1.246773e+001
1.054889e+003,1.267524e+001
1.056817e+003,1.278874e+001
1.058746e+003,1.304298e+001
1.060674e+003,1.336478e+001
1.062603e+003,1.345329e+001
1.064531e+003,1.348618e+001
1.066460e+003,1.336435e+001
1.068388e+003,1.322708e+001
1.070317e+003,1.349918e+001
1.072245e+003,1.388530e+001
1.074174e+003,1.416876e+001
1.076102e+003,1.420764e+001
1.078031e+003,1.399676e+001
1.079959e+003,1.394902e+001
1.081888e+003,1.403827e+001
1.083816e+003,1.406809e+001
1.085745e+003,1.404787e+001
1.087673e+003,1.390295e+001
1.089602e+003,1.400532e+001
1.091530e+003,1.439874e+001
1.093459e+003,1.448839e+001
1.095387e+003,1.435986e+001
1.097316e+003,1.435697e+001
1.099244e+003,1.450935e+001
1.101173e+003,1.494234e+001
1.103101e+003,1.523423e+001
1.105030e+003,1.533048e+001
1.106958e+003,1.560976e+001
1.108887e+003,1.593323e+001
1.110815e+003,1.607174e+001
1.112744e+003,1.615847e+001
1.114672e+003,1.624088e+001
1.116601e+003,1.664573e+001
1.118529e+003,1.714290e+001
1.120458e+003,1.728607e+001
1.122386e+003,1.728031e+001
1.124315e+003,1.727936e+001
1.126243e+003,1.745152e+001
1.128172e+003,1.785314e+001
1.130100e+003,1.800034e+001
1.132029e+003,1.808805e+001
1.133957e+003,1.841452e+001
1.135886e+003,1.875807e+001
1.137814e+003,1.904277e+001
1.139743e+003,1.920204e+001
1.141671e+003,1.915315e+001
1.143600e+003,1.923717e+001
1.145528e+003,1.943715e+001
1.147457e+003,1.978317e+001
1.149385e+003,2.032846e+001
1.151314e+003,2.061762e+001
1.153242e+003,2.067560e+001
1.155171e+003,2.080880e+001
1.157099e+003,2.097321e+001
1.159028e+003,2.136516e+001
1.160956e+003,2.172383e+001
1.162885e+003,2.188838e+001
1.164813e+003,2.214925e+001
1.166742e+003,2.259612e+001
1.168670e+003,2.308710e+001
1.170599e+003,2.344241e+001
1.172527e+003,2.345937e+001
1.174456e+003,2.353582e+001
1.176384e+003,2.390839e+001
1.178313e+003,2.434249e+001
1.180241e+003,2.470966e+001
1.182170e+003,2.494394e+001
1.184098e+003,2.515304e+001
1.186027e+003,2.558034e+001
1.187955e+003,2.591587e+001
1.189884e+003,2.607969e+001
1.191812e+003,2.631804e+001
1.193741e+003,2.664223e+001
1.195669e+003,2.706441e+001
1.197598e+003,2.739685e+001
1.199526e+003,2.749124e+001
1.201455e+003,2.764032e+001
1.203383e+003,2.792289e+001
1.205312e+003,2.818966e+001
1.207240e+003,2.843371e+001
1.209169e+003,2.861788e+001
1.211097e+003,2.887226e+001
1.213026e+003,2.922023e+001
1.214954e+003,2.948496e+001
1.216883e+003,2.961106e+001
1.218811e+003,2.969398e+001
1.220740e+003,2.983451e+001
1.222668e+003,3.016873e+001
1.224597e+003,3.053153e+001
1.226525e+003,3.078882e+001
1.228453e+003,3.089027e+001
1.230382e+003,3.092608e+001
1.232311e+003,3.102833e+001
1.234239e+003,3.120410e+001
1.236167e+003,3.142790e+001
1.238096e+003,3.168776e+001
1.240025e+003,3.185221e+001
1.241953e+003,3.205648e+001
1.243882e+003,3.233697e+001
1.245810e+003,3.255759e+001
1.247739e+003,3.262248e+001
1.249667e+003,3.255770e+001
1.251596e+003,3.262261e+001
1.253524e+003,3.298861e+001
1.255453e+003,3.336256e+001
1.257381e+003,3.352075e+001
1.259310e+003,3.351397e+001
1.261238e+003,3.355586e+001
1.263167e+003,3.372590e+001
1.265095e+003,3.396479e+001
1.267024e+003,3.410056e+001
1.268952e+003,3.418373e+001
1.270880e+003,3.427006e+001
1.272809e+003,3.452174e+001
1.274738e+003,3.480748e+001
1.276666e+003,3.491056e+001
1.278594e+003,3.489368e+001
1.280523e+003,3.500558e+001
1.282452e+003,3.520059e+001
1.284380e+003,3.540858e+001
1.286308e+003,3.548903e+001
1.288237e+003,3.563047e+001
1.290166e+003,3.578146e+001
1.292094e+003,3.586212e+001
1.294022e+003,3.592268e+001
1.295951e+003,3.606187e+001
1.297880e+003,3.621056e+001
1.299808e+003,3.642062e+001
1.301736e+003,3.654321e+001
1.303665e+003,3.658295e+001
1.305594e+003,3.666899e+001
1.307522e+003,3.675928e+001
1.309450e+003,3.685916e+001
1.311379e+003,3.693750e+001
1.313307e+003,3.702317e+001
1.315236e+003,3.714245e+001
1.317164e+003,3.729421e+001
1.319093e+003,3.750223e+001
1.321021e+003,3.764491e+001
1.322950e+003,3.761645e+001
1.324878e+003,3.759485e+001
1.326807e+003,3.763435e+001
1.328735e+003,3.774004e+001
1.330664e+003,3.801164e+001
1.332592e+003,3.827321e+001
1.334521e+003,3.824688e+001
1.336449e+003,3.811033e+001
1.338378e+003,3.814987e+001
1.340307e+003,3.856016e+001
1.342235e+003,3.870590e+001
1.344163e+003,3.864703e+001
1.346092e+003,3.859955e+001
1.348021e+003,3.870481e+001
1.349949e+003,3.900203e+001
1.351877e+003,3.914677e+001
1.353806e+003,3.911584e+001
1.355734e+003,3.905116e+001
1.357663e+003,3.902119e+001
1.359591e+003,3.908922e+001
1.361520e+003,3.938691e+001
1.363448e+003,3.983973e+001
1.365377e+003,3.961401e+001
1.367305e+003,3.946545e+001
1.369234e+003,3.968529e+001
1.371162e+003,3.965042e+001
1.373091e+003,3.954707e+001
1.375019e+003,3.993823e+001
1.376948e+003,4.005649e+001
1.378876e+003,4.010574e+001
1.380805e+003,4.011127e+001
1.382733e+003,4.011799e+001
1.384662e+003,3.999378e+001
1.386590e+003,4.009339e+001
1.388519e+003,4.051659e+001
1.390447e+003,4.045136e+001
1.392376e+003,4.032525e+001
1.394304e+003,4.053397e+001
1.396233e+003,4.077129e+001
1.398161e+003,4.070478e+001
1.400090e+003,4.092763e+001
1.402018e+003,4.063161e+001
1.403947e+003,4.063165e+001
1.405875e+003,4.100194e+001
1.407804e+003,4.103167e+001
1.409732e+003,4.103780e+001
1.411661e+003,4.109976e+001
1.413589e+003,4.102670e+001
1.415518e+003,4.080434e+001
1.417446e+003,4.065532e+001
1.419375e+003,4.157843e+001
1.421303e+003,4.155814e+001
1.423232e+003,4.123409e+001
1.425160e+003,4.157867e+001
1.427089e+003,4.140631e+001
1.429017e+003,4.145749e+001
1.430946e+003,4.155371e+001
1.432874e+003,4.125482e+001
1.434803e+003,4.099437e+001
1.436731e+003,4.200173e+001
1.438660e+003,4.233497e+001
1.440588e+003,4.199521e+001
1.442517e+003,4.184872e+001
1.444445e+003,4.175095e+001
1.446374e+003,4.176492e+001
1.448302e+003,4.212778e+001
1.450231e+003,4.210896e+001
1.452159e+003,4.192192e+001
1.454088e+003,4.159710e+001
1.456016e+003,4.181000e+001
1.457945e+003,4.360193e+001
1.459873e+003,4.302323e+001
1.461802e+003,4.227113e+001
1.463730e+003,4.199303e+001
1.465659e+003,4.268846e+001
1.467587e+003,4.271874e+001
1.469516e+003,4.230900e+001
1.471444e+003,4.229394e+001
1.473373e+003,4.332213e+001
1.475301e+003,4.303482e+001
1.477230e+003,4.301682e+001
1.479158e+003,4.274730e+001
1.481087e+003,4.276664e+001
1.483015e+003,4.294683e+001
1.484944e+003,4.268680e+001
1.486872e+003,4.272000e+001
1.488801e+003,4.301163e+001
1.490729e+003,4.363491e+001
1.492658e+003,4.329058e+001
1.494586e+003,4.264894e+001
1.496515e+003,4.287021e+001
1.498443e+003,4.355535e+001
1.500372e+003,4.357592e+001
1.502300e+003,4.323792e+001
1.504229e+003,4.260659e+001
1.506157e+003,4.247795e+001
1.508086e+003,4.423254e+001
1.510014e+003,4.360129e+001
1.511943e+003,4.339177e+001
1.513871e+003,4.338487e+001
1.515800e+003,4.345950e+001
1.517728e+003,4.395655e+001
1.519657e+003,4.314247e+001
1.521585e+003,4.367073e+001
1.523514e+003,4.393690e+001
1.525442e+003,4.377943e+001
1.527371e+003,4.396432e+001
1.529299e+003,4.384510e+001
1.531228e+003,4.340425e+001
1.533156e+003,4.401114e+001
1.535085e+003,4.448499e+001
1.537013e+003,4.320026e+001
1.538942e+003,4.194036e+001
1.540870e+003,4.368866e+001
1.542799e+003,4.440303e+001
1.544727e+003,4.482866e+001
1.546656e+003,4.444796e+001
1.548584e+003,4.380095e+001
1.550513e+003,4.417221e+001
1.552441e+003,4.387416e+001
1.554370e+003,4.375507e+001
1.556298e+003,4.326398e+001
1.558227e+003,4.260529e+001
1.560155e+003,4.581020e+001
1.562084e+003,4.471430e+001
1.564012e+003,4.423425e+001
1.565941e+003,4.426440e+001
1.567869e+003,4.371557e+001
1.569798e+003,4.427964e+001
1.571726e+003,4.439924e+001
1.573655e+003,4.372178e+001
1.575583e+003,4.400979e+001
1.577512e+003,4.513529e+001
1.579440e+003,4.456588e+001
1.581369e+003,4.427920e+001
1.583297e+003,4.422688e+001
1.585226e+003,4.417411e+001
1.587154e+003,4.414412e+001
1.589083e+003,4.412898e+001
1.591011e+003,4.420191e+001
1.592940e+003,4.425760e+001
1.594868e+003,4.427782e+001
1.596797e+003,4.421986e+001
1.598725e+003,4.406627e+001
1.600654e+003,4.398414e+001
1.602582e+003,4.406673e+001
1.604511e+003,4.406575e+001
1.606439e+003,4.391624e+001
1.608368e+003,4.413462e+001
1.610296e+003,4.433186e+001
1.612225e+003,4.410706e+001
1.614153e+003,4.338227e+001
1.616082e+003,4.321957e+001
1.618010e+003,4.428180e+001
1.619939e+003,4.394965e+001
1.621867e+003,4.361623e+001
1.623796e+003,4.417797e+001
1.625724e+003,4.385974e+001
1.627653e+003,4.379462e+001
1.629581e+003,4.399953e+001
1.631510e+003,4.351694e+001
1.633438e+003,4.282849e+001
1.635367e+003,4.310379e+001
1.637295e+003,4.448941e+001
1.639224e+003,4.410267e+001
1.641152e+003,4.386002e+001
1.643081e+003,4.343976e+001
1.645009e+003,4.278275e+001
1.646938e+003,4.358503e+001
1.648866e+003,4.415149e+001
1.650795e+003,4.294147e+001
1.652723e+003,4.333474e+001
1.654652e+003,4.547945e+001
1.656580e+003,4.436772e+001
1.658509e+003,4.382989e+001
1.660437e+003,4.356773e+001
1.662366e+003,4.387337e+001
1.664294e+003,4.426688e+001
1.666223e+003,4.357014e+001
1.668151e+003,4.332467e+001
1.670080e+003,4.443713e+001
1.672008e+003,4.444130e+001
1.673937e+003,4.377306e+001
1.675865e+003,4.440551e+001
1.677794e+003,4.398230e+001
1.679722e+003,4.372443e+001
1.681651e+003,4.343069e+001
1.683579e+003,4.355963e+001
1.685508e+003,4.543312e+001
1.687436e+003,4.464935e+001
1.689365e+003,4.449610e+001
1.691293e+003,4.436058e+001
1.693222e+003,4.362458e+001
1.695150e+003,4.351542e+001
1.697079e+003,4.469077e+001
1.699007e+003,4.425579e+001
1.700936e+003,4.560182e+001
1.702864e+003,4.476198e+001
1.704793e+003,4.436397e+001
1.706721e+003,4.496875e+001
1.708650e+003,4.463344e+001
1.710578e+003,4.442044e+001
1.712507e+003,4.410063e+001
1.714435e+003,4.413477e+001
1.716364e+003,4.484458e+001
1.718292e+003,4.599086e+001
1.720221e+003,4.525113e+001
1.722149e+003,4.456305e+001
1.724078e+003,4.473695e+001
1.726006e+003,4.474286e+001
1.727935e+003,4.455504e+001
1.729863e+003,4.462170e+001
1.731792e+003,4.437194e+001
1.733720e+003,4.495778e+001
1.735649e+003,4.581133e+001
1.737577e+003,4.468835e+001
1.739506e+003,4.479193e+001
1.741434e+003,4.493845e+001
1.743363e+003,4.497014e+001
1.745291e+003,4.503871e+001
1.747220e+003,4.500083e+001
1.749148e+003,4.537160e+001
1.751077e+003,4.567700e+001
1.753005e+003,4.549868e+001
1.754934e+003,4.479910e+001
1.756862e+003,4.513158e+001
1.758791e+003,4.522957e+001
1.760719e+003,4.503831e+001
1.762648e+003,4.564684e+001
1.764576e+003,4.539031e+001
1.766505e+003,4.494225e+001
1.768433e+003,4.510582e+001
1.770362e+003,4.471911e+001
1.772290e+003,4.546124e+001
1.774219e+003,4.589495e+001
1.776147e+003,4.558629e+001
1.778076e+003,4.525208e+001
1.780004e+003,4.524931e+001
1.781933e+003,4.540833e+001
1.783861e+003,4.526652e+001
1.785790e+003,4.547427e+001
1.787718e+003,4.522194e+001
1.789647e+003,4.489228e+001
1.791575e+003,4.535848e+001
1.793504e+003,4.606553e+001
1.795432e+003,4.561806e+001
1.797361e+003,4.524269e+001
1.799289e+003,4.512390e+001
1.801218e+003,4.564726e+001
1.803146e+003,4.574896e+001
1.805075e+003,4.557672e+001
1.807003e+003,4.539616e+001
1.808932e+003,4.535177e+001
1.810860e+003,4.564737e+001
1.812789e+003,4.577974e+001
1.814717e+003,4.544409e+001
1.816646e+003,4.541868e+001
1.818574e+003,4.546519e+001
1.820503e+003,4.553078e+001
1.822431e+003,4.546275e+001
1.824360e+003,4.560989e+001
1.826288e+003,4.581607e+001
1.828217e+003,4.528479e+001
1.830145e+003,4.578181e+001
1.832074e+003,4.590083e+001
1.834002e+003,4.560241e+001
1.835931e+003,4.565497e+001
1.837859e+003,4.576133e+001
1.839788e+003,4.558871e+001
1.841716e+003,4.521666e+001
1.843645e+003,4.556556e+001
1.845573e+003,4.606499e+001
1.847502e+003,4.578731e+001
1.849430e+003,4.572497e+001
1.851359e+003,4.569184e+001
1.853287e+003,4.583960e+001
1.855216e+003,4.577835e+001
1.857144e+003,4.568484e+001
1.859073e+003,4.563194e+001
1.861001e+003,4.561142e+001
1.862930e+003,4.564926e+001
1.864858e+003,4.549142e+001
1.866786e+003,4.530217e+001
1.868715e+003,4.601497e+001
1.870644e+003,4.628991e+001
1.872572e+003,4.584225e+001
1.874500e+003,4.564631e+001
1.876429e+003,4.555822e+001
1.878358e+003,4.562760e+001
1.880286e+003,4.574509e+001
1.882215e+003,4.568877e+001
1.884143e+003,4.568967e+001
1.886072e+003,4.564747e+001
1.888000e+003,4.551043e+001
1.889929e+003,4.587503e+001
1.891857e+003,4.569939e+001
1.893786e+003,4.542189e+001
1.895714e+003,4.570328e+001
1.897643e+003,4.575362e+001
1.899571e+003,4.569154e+001
1.901500e+003,4.558953e+001
1.903428e+003,4.549535e+001
1.905357e+003,4.545003e+001
1.907285e+003,4.543544e+001
1.909214e+003,4.561961e+001
1.911142e+003,4.579546e+001
1.913071e+003,4.564084e+001
1.914999e+003,4.543708e+001
1.916927e+003,4.540111e+001
1.918856e+003,4.576559e+001
1.920785e+003,4.545806e+001
1.922713e+003,4.549962e+001
1.924641e+003,4.557309e+001
1.926570e+003,4.546713e+001
1.928499e+003,4.555704e+001
1.930427e+003,4.561414e+001
1.932355e+003,4.553894e+001
1.934284e+003,4.540765e+001
1.936213e+003,4.530373e+001
1.938141e+003,4.530765e+001
1.940069e+003,4.520692e+001
1.941998e+003,4.535938e+001
1.943927e+003,4.556651e+001
1.945855e+003,4.543752e+001
1.947783e+003,4.545623e+001
1.949712e+003,4.536940e+001
1.951641e+003,4.526425e+001
1.953569e+003,4.515184e+001
1.955497e+003,4.520736e+001
1.957426e+003,4.529417e+001
1.959354e+003,4.533253e+001
1.961283e+003,4.531940e+001
1.963211e+003,4.528935e+001
1.965140e+003,4.520516e+001
1.967068e+003,4.530892e+001
1.968997e+003,4.529594e+001
1.970925e+003,4.521234e+001
1.972854e+003,4.528153e+001
1.974782e+003,4.530995e+001
1.976711e+003,4.527976e+001
1.978639e+003,4.520592e+001
1.980568e+003,4.511814e+001
1.982496e+003,4.511407e+001
1.984425e+003,4.517118e+001
1.986354e+003,4.516756e+001
1.988282e+003,4.517352e+001
1.990210e+003,4.511398e+001
1.992139e+003,4.532389e+001
1.994068e+003,4.540907e+001
1.995996e+003,4.518017e+001
1.997924e+003,4.509452e+001
1.999853e+003,4.505515e+001
2.001781e+003,4.505635e+001
2.003710e+003,4.510823e+001
2.005638e+003,4.519777e+001
2.007567e+003,4.519063e+001
2.009495e+003,4.514090e+001
2.011424e+003,4.499774e+001
2.013352e+003,4.490165e+001
2.015281e+003,4.489273e+001
2.017209e+003,4.512036e+001
2.019138e+003,4.517347e+001
2.021066e+003,4.506330e+001
2.022995e+003,4.500113e+001
2.024923e+003,4.502856e+001
2.026852e+003,4.500574e+001
2.028780e+003,4.492714e+001
2.030709e+003,4.481004e+001
2.032637e+003,4.480604e+001
2.034566e+003,4.490940e+001
2.036494e+003,4.499595e+001
2.038423e+003,4.489115e+001
2.040351e+003,4.480411e+001
2.042280e+003,4.478320e+001
2.044208e+003,4.476775e+001
2.046137e+003,4.477063e+001
2.048065e+003,4.477110e+001
2.049994e+003,4.477504e+001
2.051922e+003,4.483621e+001
2.053851e+003,4.479573e+001
2.055779e+003,4.470825e+001
2.057708e+003,4.464269e+001
2.059636e+003,4.467245e+001
2.061565e+003,4.468691e+001
2.063493e+003,4.466977e+001
2.065422e+003,4.470978e+001
2.067350e+003,4.477618e+001
2.069279e+003,4.476852e+001
2.071207e+003,4.473949e+001
2.073136e+003,4.461840e+001
2.075064e+003,4.451711e+001
2.076993e+003,4.451794e+001
2.078921e+003,4.463538e+001
2.080850e+003,4.466601e+001
2.082778e+003,4.468705e+001
2.084707e+003,4.461971e+001
2.086635e+003,4.454295e+001
2.088564e+003,4.446933e+001
2.090492e+003,4.447488e+001
2.092421e+003,4.450963e+001
2.094349e+003,4.455788e+001
2.096278e+003,4.453231e+001
2.098206e+003,4.453714e+001
2.100135e+003,4.456913e+001
2.102063e+003,4.461512e+001
2.103992e+003,4.452148e+001
2.105920e+003,4.440783e+001
2.107849e+003,4.435868e+001
2.109777e+003,4.446140e+001
2.111706e+003,4.458982e+001
2.113634e+003,4.459248e+001
2.115563e+003,4.445626e+001
2.117491e+003,4.434119e+001
2.119420e+003,4.430582e+001
2.121348e+003,4.437305e+001
2.123277e+003,4.441019e+001
2.125205e+003,4.438715e+001
2.127134e+003,4.438034e+001
2.129062e+003,4.445150e+001
2.130991e+003,4.444973e+001
2.132919e+003,4.440044e+001
2.134848e+003,4.432264e+001
2.136776e+003,4.428177e+001
2.138705e+003,4.429314e+001
2.140633e+003,4.431776e+001
2.142562e+003,4.432497e+001
2.144490e+003,4.437030e+001
2.146419e+003,4.433380e+001
2.148347e+003,4.428203e+001
2.150276e+003,4.421638e+001
2.152204e+003,4.415540e+001
2.154133e+003,4.419577e+001
2.156061e+003,4.427975e+001
2.157990e+003,4.426492e+001
2.159918e+003,4.427147e+001
2.161847e+003,4.424099e+001
2.163775e+003,4.420695e+001
2.165704e+003,4.417816e+001
2.167632e+003,4.413369e+001
2.169561e+003,4.410106e+001
2.171489e+003,4.413721e+001
2.173418e+003,4.415430e+001
2.175346e+003,4.416525e+001
2.177275e+003,4.411513e+001
2.179203e+003,4.409151e+001
2.181132e+003,4.409096e+001
2.183060e+003,4.404068e+001
2.184989e+003,4.403002e+001
2.186917e+003,4.414018e+001
2.188846e+003,4.418919e+001
2.190774e+003,4.417640e+001
2.192703e+003,4.405411e+001
2.194631e+003,4.391588e+001
2.196560e+003,4.392326e+001
2.198488e+003,4.398588e+001
2.200417e+003,4.400715e+001
2.202345e+003,4.399756e+001
2.204274e+003,4.395634e+001
2.206202e+003,4.401903e+001
2.208131e+003,4.407468e+001
2.210059e+003,4.396213e+001
2.211988e+003,4.386518e+001
2.213916e+003,4.385548e+001
2.215845e+003,4.391977e+001
2.217773e+003,4.401872e+001
2.219702e+003,4.397692e+001
2.221630e+003,4.389756e+001
2.223559e+003,4.388107e+001
2.225487e+003,4.385931e+001
2.227416e+003,4.385736e+001
2.229344e+003,4.384409e+001
2.231273e+003,4.380188e+001
2.233201e+003,4.385651e+001
2.235130e+003,4.387930e+001
2.237058e+003,4.384186e+001
2.238987e+003,4.382663e+001
2.240915e+003,4.377755e+001
2.242844e+003,4.373594e+001
2.244772e+003,4.371400e+001
2.246701e+003,4.368538e+001
2.248629e+003,4.374935e+001
2.250558e+003,4.382368e+001
2.252486e+003,4.375847e+001
2.254415e+003,4.366192e+001
2.256343e+003,4.358480e+001
2.258272e+003,4.356014e+001
2.260200e+003,4.360526e+001
2.262129e+003,4.359676e+001
2.264057e+003,4.361483e+001
2.265986e+003,4.365232e+001
2.267914e+003,4.358268e+001
2.269843e+003,4.353220e+001
2.271771e+003,4.348333e+001
2.273700e+003,4.349603e+001
2.275628e+003,4.357148e+001
2.277557e+003,4.357033e+001
2.279485e+003,4.350523e+001
2.281414e+003,4.352173e+001
2.283342e+003,4.352993e+001
2.285271e+003,4.350890e+001
2.287199e+003,4.339934e+001
2.289128e+003,4.325914e+001
2.291056e+003,4.319766e+001
2.292985e+003,4.328846e+001
2.294913e+003,4.333956e+001
2.296842e+003,4.323121e+001
2.298770e+003,4.306216e+001
2.300699e+003,4.296410e+001
2.302627e+003,4.293722e+001
2.304556e+003,4.286422e+001
2.306484e+003,4.273341e+001
2.308413e+003,4.263237e+001
2.310341e+003,4.255555e+001
2.312270e+003,4.260151e+001
2.314198e+003,4.255463e+001
2.316127e+003,4.229770e+001
2.318055e+003,4.196492e+001
2.319984e+003,4.179359e+001
2.321912e+003,4.175886e+001
2.323841e+003,4.179688e+001
2.325769e+003,4.179448e+001
2.327698e+003,4.176946e+001
2.329626e+003,4.157798e+001
2.331555e+003,4.140534e+001
2.333483e+003,4.126145e+001
2.335412e+003,4.121401e+001
2.337340e+003,4.128698e+001
2.339269e+003,4.139262e+001
2.341197e+003,4.143339e+001
2.343126e+003,4.157323e+001
2.345054e+003,4.196088e+001
2.346983e+003,4.225569e+001
2.348911e+003,4.166095e+001
2.350840e+003,4.090965e+001
2.352768e+003,4.074527e+001
2.354697e+003,4.078258e+001
2.356625e+003,4.044170e+001
2.358554e+003,4.010545e+001
2.360482e+003,4.029874e+001
2.362411e+003,4.054126e+001
2.364339e+003,4.070779e+001
2.366268e+003,4.078398e+001
2.368196e+003,4.130370e+001
2.370125e+003,4.186019e+001
2.372053e+003,4.221012e+001
2.373982e+003,4.227329e+001
2.375910e+003,4.226495e+001
2.377839e+003,4.235831e+001
2.379767e+003,4.263852e+001
2.381696e+003,4.277134e+001
2.383624e+003,4.280375e+001
2.385553e+003,4.279790e+001
2.387481e+003,4.282346e+001
2.389410e+003,4.287663e+001
2.391338e+003,4.281847e+001
2.393267e+003,4.265035e+001
2.395195e+003,4.261310e+001
2.397124e+003,4.262708e+001
2.399052e+003,4.273244e+001
2.400981e+003,4.282535e+001
2.402909e+003,4.279010e+001
2.404838e+003,4.269568e+001
2.406766e+003,4.266520e+001
2.408695e+003,4.262550e+001
2.410623e+003,4.261225e+001
2.412552e+003,4.260222e+001
2.414480e+003,4.260367e+001
2.416409e+003,4.259776e+001
2.418337e+003,4.260620e+001
2.420266e+003,4.261928e+001
2.422194e+003,4.262460e+001
2.424123e+003,4.254556e+001
2.426051e+003,4.247474e+001
2.427980e+003,4.242268e+001
2.429908e+003,4.245158e+001
2.431837e+003,4.254378e+001
2.433765e+003,4.256258e+001
2.435694e+003,4.248326e+001
2.437622e+003,4.243453e+001
2.439551e+003,4.236695e+001
2.441479e+003,4.238448e+001
2.443408e+003,4.239527e+001
2.445336e+003,4.239505e+001
2.447265e+003,4.240379e+001
2.449193e+003,4.242978e+001
2.451122e+003,4.236715e+001
2.453050e+003,4.231532e+001
2.454979e+003,4.228670e+001
2.456907e+003,4.228358e+001
2.458836e+003,4.228119e+001
2.460764e+003,4.228280e+001
2.462693e+003,4.227580e+001
2.464621e+003,4.234753e+001
2.466550e+003,4.239930e+001
2.468478e+003,4.233963e+001
2.470406e+003,4.213369e+001
2.472335e+003,4.204093e+001
2.474264e+003,4.212802e+001
2.476192e+003,4.224580e+001
2.478121e+003,4.228035e+001
2.480049e+003,4.223196e+001
2.481978e+003,4.213403e+001
2.483906e+003,4.208156e+001
2.485834e+003,4.206857e+001
2.487763e+003,4.209289e+001
2.489692e+003,4.207668e+001
2.491620e+003,4.209102e+001
2.493549e+003,4.213309e+001
2.495477e+003,4.216787e+001
2.497406e+003,4.213632e+001
2.499334e+003,4.203134e+001
2.501262e+003,4.191882e+001
2.503191e+003,4.189890e+001
2.505120e+003,4.193713e+001
2.507048e+003,4.201396e+001
2.508977e+003,4.207345e+001
2.510905e+003,4.205790e+001
2.512833e+003,4.197252e+001
2.514762e+003,4.190990e+001
2.516690e+003,4.185917e+001
2.518619e+003,4.189253e+001
2.520548e+003,4.190482e+001
2.522476e+003,4.189761e+001
2.524405e+003,4.191288e+001
2.526333e+003,4.192868e+001
2.528261e+003,4.190205e+001
2.530190e+003,4.186333e+001
2.532119e+003,4.174985e+001
2.534047e+003,4.173059e+001
2.535976e+003,4.179201e+001
2.537904e+003,4.178408e+001
2.539833e+003,4.178104e+001
2.541761e+003,4.181689e+001
2.543689e+003,4.177947e+001
2.545618e+003,4.177533e+001
2.547547e+003,4.167785e+001
2.549475e+003,4.158974e+001
2.551404e+003,4.164429e+001
2.553332e+003,4.174138e+001
2.555260e+003,4.176047e+001
2.557189e+003,4.172872e+001
2.559117e+003,4.162935e+001
2.561046e+003,4.161522e+001
2.562975e+003,4.158702e+001
2.564903e+003,4.151600e+001
2.566832e+003,4.151518e+001
2.568760e+003,4.154786e+001
2.570688e+003,4.160229e+001
2.572617e+003,4.166972e+001
2.574545e+003,4.158094e+001
2.576474e+003,4.144987e+001
2.578403e+003,4.141714e+001
2.580331e+003,4.139998e+001
2.582260e+003,4.144244e+001
2.584188e+003,4.150370e+001
2.586116e+003,4.152335e+001
2.588045e+003,4.151631e+001
2.589973e+003,4.142318e+001
2.591902e+003,4.137007e+001
2.593831e+003,4.138271e+001
2.595759e+003,4.135479e+001
2.597688e+003,4.132714e+001
2.599616e+003,4.134380e+001
2.601544e+003,4.136804e+001
2.603473e+003,4.143032e+001
2.605401e+003,4.140309e+001
2.607330e+003,4.124710e+001
2.609259e+003,4.116856e+001
2.611187e+003,4.114236e+001
2.613115e+003,4.120956e+001
2.615044e+003,4.131525e+001
2.616972e+003,4.123775e+001
2.618901e+003,4.117757e+001
2.620830e+003,4.116978e+001
2.622758e+003,4.112713e+001
2.624687e+003,4.111586e+001
2.626615e+003,4.109914e+001
2.628543e+003,4.107002e+001
2.630472e+003,4.108781e+001
2.632400e+003,4.110664e+001
2.634329e+003,4.108464e+001
2.636258e+003,4.107473e+001
2.638186e+003,4.103272e+001
2.640115e+003,4.098895e+001
2.642043e+003,4.096685e+001
2.643971e+003,4.093938e+001
2.645900e+003,4.095609e+001
2.647828e+003,4.104921e+001
2.649757e+003,4.107508e+001
2.651686e+003,4.098905e+001
2.653614e+003,4.084699e+001
2.655542e+003,4.081989e+001
2.657471e+003,4.088417e+001
2.659399e+003,4.093115e+001
2.661328e+003,4.092620e+001
2.663256e+003,4.088121e+001
2.665185e+003,4.081770e+001
2.667114e+003,4.081539e+001
2.669042e+003,4.081562e+001
2.670970e+003,4.078409e+001
2.672899e+003,4.072365e+001
2.674827e+003,4.072930e+001
2.676756e+003,4.077164e+001
2.678684e+003,4.083560e+001
2.680613e+003,4.079965e+001
2.682542e+003,4.075682e+001
2.684470e+003,4.069729e+001
2.686398e+003,4.061890e+001
2.688327e+003,4.060857e+001
2.690255e+003,4.065388e+001
2.692184e+003,4.070164e+001
2.694112e+003,4.068607e+001
2.696041e+003,4.060150e+001
2.697969e+003,4.057149e+001
2.699898e+003,4.056950e+001
2.701826e+003,4.056066e+001
2.703755e+003,4.050797e+001
2.705683e+003,4.049996e+001
2.707612e+003,4.056884e+001
2.709540e+003,4.061952e+001
2.711469e+003,4.058275e+001
2.713397e+003,4.051668e+001
2.715326e+003,4.041624e+001
2.717254e+003,4.042354e+001
2.719183e+003,4.045061e+001
2.721111e+003,4.043977e+001
2.723040e+003,4.040320e+001
2.724969e+003,4.039914e+001
2.726897e+003,4.045137e+001
2.728825e+003,4.042435e+001
2.730754e+003,4.032878e+001
2.732682e+003,4.028033e+001
2.734611e+003,4.034124e+001
2.736539e+003,4.037692e+001
2.738468e+003,4.033376e+001
2.740396e+003,4.028618e+001
2.742325e+003,4.031880e+001
2.744253e+003,4.032970e+001
2.746182e+003,4.025177e+001
2.748110e+003,4.022580e+001
2.750039e+003,4.023613e+001
2.751967e+003,4.024050e+001
2.753896e+003,4.029143e+001
2.755824e+003,4.024067e+001
2.757753e+003,4.012440e+001
2.759681e+003,4.006148e+001
2.761610e+003,4.008431e+001
2.763538e+003,4.014859e+001
2.765467e+003,4.015527e+001
2.767395e+003,4.015366e+001
2.769324e+003,4.015758e+001
2.771252e+003,4.005424e+001
2.773181e+003,3.996322e+001
2.775109e+003,3.995995e+001
2.777038e+003,4.001107e+001
2.778966e+003,3.999225e+001
2.780895e+003,3.992020e+001
2.782823e+003,3.988228e+001
2.784752e+003,3.993978e+001
2.786680e+003,4.000415e+001
2.788609e+003,3.993785e+001
2.790537e+003,3.983623e+001
2.792466e+003,3.979888e+001
2.794394e+003,3.981949e+001
2.796323e+003,3.989472e+001
2.798251e+003,3.989733e+001
2.800180e+003,3.985142e+001
2.802108e+003,3.980219e+001
2.804037e+003,3.980605e+001
2.805965e+003,3.977795e+001
2.807894e+003,3.973641e+001
2.809822e+003,3.970637e+001
2.811751e+003,3.972818e+001
2.813679e+003,3.974387e+001
2.815608e+003,3.976168e+001
2.817536e+003,3.973996e+001
2.819465e+003,3.972221e+001
2.821393e+003,3.966672e+001
2.823322e+003,3.964842e+001
2.825250e+003,3.961152e+001
2.827179e+003,3.958965e+001
2.829107e+003,3.962763e+001
2.831036e+003,3.967084e+001
2.832964e+003,3.958728e+001
2.834893e+003,3.952071e+001
2.836821e+003,3.949221e+001
2.838750e+003,3.950147e+001
2.840678e+003,3.950551e+001
2.842607e+003,3.948968e+001
2.844535e+003,3.940670e+001
2.846464e+003,3.939658e+001
2.848392e+003,3.939755e+001
2.850321e+003,3.937545e+001
2.852249e+003,3.934026e+001
2.854178e+003,3.929521e+001
2.856106e+003,3.927738e+001
2.858035e+003,3.930746e+001
2.859963e+003,3.928768e+001
2.861892e+003,3.928944e+001
2.863820e+003,3.925897e+001
2.865749e+003,3.915841e+001
2.867677e+003,3.910912e+001
2.869606e+003,3.915074e+001
2.871534e+003,3.920957e+001
2.873463e+003,3.928680e+001
2.875391e+003,3.924550e+001
2.877320e+003,3.913828e+001
2.879248e+003,3.908358e+001
2.881177e+003,3.909939e+001
2.883105e+003,3.910340e+001
2.885034e+003,3.907259e+001
2.886962e+003,3.897202e+001
2.888891e+003,3.897349e+001
2.890819e+003,3.904545e+001
2.892748e+003,3.909200e+001
2.894676e+003,3.900150e+001
2.896605e+003,3.887182e+001
2.898533e+003,3.879407e+001
2.900462e+003,3.882686e+001
2.902390e+003,3.885207e+001
2.904319e+003,3.888992e+001
2.906247e+003,3.888290e+001
2.908176e+003,3.884217e+001
2.910104e+003,3.875551e+001
2.912033e+003,3.866143e+001
2.913961e+003,3.866064e+001
2.915890e+003,3.873621e+001
2.917818e+003,3.870018e+001
2.919747e+003,3.866120e+001
2.921675e+003,3.862115e+001
2.923604e+003,3.862917e+001
2.925532e+003,3.867114e+001
2.927461e+003,3.865869e+001
2.929389e+003,3.855702e+001
2.931318e+003,3.855392e+001
2.933246e+003,3.863414e+001
2.935175e+003,3.870146e+001
2.937103e+003,3.870892e+001
2.939032e+003,3.861685e+001
2.940960e+003,3.853779e+001
2.942889e+003,3.851300e+001
2.944817e+003,3.849620e+001
2.946746e+003,3.851538e+001
2.948674e+003,3.857974e+001
2.950603e+003,3.859831e+001
2.952531e+003,3.857513e+001
2.954460e+003,3.852416e+001
2.956388e+003,3.845826e+001
2.958317e+003,3.850137e+001
2.960245e+003,3.852372e+001
2.962174e+003,3.847453e+001
2.964102e+003,3.839941e+001
2.966031e+003,3.840237e+001
2.967959e+003,3.855476e+001
2.969888e+003,3.858456e+001
2.971816e+003,3.837592e+001
2.973745e+003,3.826817e+001
2.975673e+003,3.822529e+001
2.977602e+003,3.824893e+001
2.979530e+003,3.836747e+001
2.981459e+003,3.837480e+001
2.983387e+003,3.827664e+001
2.985316e+003,3.829742e+001
2.987244e+003,3.829990e+001
2.989173e+003,3.824935e+001
2.991101e+003,3.820774e+001
2.993030e+003,3.819759e+001
2.994958e+003,3.827638e+001
2.996887e+003,3.830585e+001
2.998815e+003,3.825403e+001
3.000744e+003,3.822263e+001
3.002672e+003,3.817313e+001
3.004601e+003,3.815894e+001
3.006529e+003,3.812424e+001
3.008458e+003,3.806726e+001
3.010386e+003,3.816977e+001
3.012315e+003,3.827786e+001
3.014243e+003,3.820035e+001
3.016172e+003,3.805612e+001
3.018100e+003,3.799400e+001
3.020029e+003,3.797748e+001
3.021957e+003,3.800481e+001
3.023886e+003,3.793911e+001
3.025814e+003,3.795693e+001
3.027743e+003,3.803232e+001
3.029671e+003,3.802320e+001
3.031600e+003,3.799664e+001
3.033528e+003,3.791245e+001
3.035457e+003,3.786618e+001
3.037385e+003,3.787450e+001
3.039314e+003,3.788900e+001
3.041242e+003,3.791657e+001
3.043171e+003,3.791952e+001
3.045099e+003,3.792879e+001
3.047028e+003,3.781515e+001
3.048956e+003,3.772410e+001
3.050885e+003,3.764375e+001
3.052813e+003,3.760152e+001
3.054742e+003,3.764845e+001
3.056670e+003,3.778489e+001
3.058599e+003,3.774036e+001
3.060527e+003,3.768335e+001
3.062456e+003,3.765496e+001
3.064384e+003,3.765470e+001
3.066313e+003,3.763794e+001
3.068241e+003,3.756805e+001
3.070170e+003,3.750917e+001
3.072098e+003,3.758730e+001
3.074027e+003,3.764607e+001
3.075955e+003,3.755920e+001
3.077884e+003,3.743261e+001
3.079812e+003,3.740324e+001
3.081741e+003,3.737376e+001
3.083669e+003,3.739024e+001
3.085598e+003,3.737028e+001
3.087526e+003,3.745181e+001
3.089455e+003,3.747910e+001
3.091383e+003,3.738741e+001
3.093312e+003,3.722888e+001
3.095240e+003,3.721809e+001
3.097169e+003,3.725300e+001
3.099097e+003,3.724545e+001
3.101026e+003,3.719617e+001
3.102954e+003,3.714505e+001
3.104883e+003,3.719172e+001
3.106811e+003,3.727211e+001
3.108740e+003,3.726170e+001
3.110668e+003,3.712944e+001
3.112597e+003,3.699702e+001
3.114525e+003,3.699438e+001
3.116454e+003,3.704589e+001
3.118382e+003,3.708694e+001
3.120311e+003,3.708062e+001
3.122239e+003,3.706010e+001
3.124167e+003,3.699903e+001
3.126096e+003,3.690832e+001
3.128025e+003,3.688938e+001
3.129953e+003,3.685784e+001
3.131882e+003,3.689614e+001
3.133810e+003,3.695218e+001
3.135739e+003,3.683252e+001
3.137667e+003,3.673714e+001
3.139595e+003,3.677708e+001
3.141524e+003,3.681688e+001
3.143453e+003,3.674948e+001
3.145381e+003,3.666753e+001
3.147310e+003,3.666269e+001
3.149238e+003,3.675489e+001
3.151167e+003,3.680244e+001
3.153095e+003,3.668504e+001
3.155023e+003,3.649811e+001
3.156952e+003,3.644930e+001
3.158881e+003,3.650101e+001
3.160809e+003,3.650886e+001
3.162738e+003,3.650468e+001
3.164666e+003,3.652031e+001
3.166594e+003,3.654111e+001
3.168523e+003,3.648312e+001
3.170452e+003,3.639540e+001
3.172380e+003,3.631470e+001
3.174309e+003,3.627972e+001
3.176237e+003,3.626288e+001
3.178166e+003,3.627714e+001
3.180094e+003,3.622221e+001
3.182022e+003,3.624864e+001
3.183951e+003,3.628121e+001
3.185880e+003,3.621221e+001
3.187808e+003,3.603547e+001
3.189737e+003,3.591963e+001
3.191665e+003,3.594405e+001
3.193594e+003,3.602827e+001
3.195522e+003,3.600630e+001
3.197450e+003,3.601852e+001
3.199379e+003,3.598034e+001
3.201308e+003,3.595588e+001
3.203236e+003,3.595194e+001
3.205165e+003,3.583874e+001
3.207093e+003,3.577000e+001
3.209021e+003,3.583170e+001
3.210950e+003,3.583654e+001
3.212878e+003,3.576074e+001
3.214807e+003,3.570235e+001
3.216736e+003,3.561963e+001
3.218664e+003,3.557971e+001
3.220593e+003,3.556110e+001
3.222521e+003,3.553659e+001
3.224449e+003,3.557020e+001
3.226378e+003,3.562278e+001
3.228306e+003,3.566948e+001
3.230235e+003,3.549806e+001
3.232164e+003,3.532942e+001
3.234092e+003,3.532244e+001
3.236021e+003,3.539602e+001
3.237949e+003,3.542512e+001
3.239877e+003,3.534180e+001
3.241806e+003,3.522920e+001
3.243734e+003,3.525656e+001
3.245663e+003,3.532539e+001
3.247592e+003,3.521892e+001
3.249520e+003,3.508311e+001
3.251448e+003,3.498671e+001
3.253377e+003,3.502027e+001
3.255305e+003,3.518626e+001
3.257234e+003,3.521164e+001
3.259162e+003,3.519223e+001
3.261091e+003,3.511850e+001
3.263020e+003,3.499965e+001
3.264948e+003,3.491926e+001
3.266876e+003,3.493134e+001
3.268805e+003,3.490811e+001
3.270733e+003,3.494120e+001
3.272662e+003,3.490931e+001
3.274591e+003,3.487013e+001
3.276519e+003,3.483086e+001
3.278448e+003,3.477985e+001
3.280376e+003,3.479502e+001
3.282304e+003,3.476283e+001
3.284233e+003,3.465551e+001
3.286161e+003,3.467391e+001
3.288090e+003,3.472769e+001
3.290019e+003,3.470744e+001
3.291947e+003,3.467232e+001
3.293875e+003,3.460390e+001
3.295804e+003,3.450929e+001
3.297732e+003,3.454955e+001
3.299661e+003,3.454803e+001
3.301589e+003,3.452847e+001
3.303518e+003,3.457071e+001
3.305447e+003,3.455611e+001
3.307375e+003,3.448545e+001
3.309303e+003,3.440878e+001
3.311232e+003,3.427823e+001
3.313160e+003,3.433678e+001
3.315089e+003,3.434225e+001
3.317017e+003,3.428942e+001
3.318946e+003,3.424891e+001
3.320875e+003,3.422687e+001
3.322803e+003,3.422513e+001
3.324731e+003,3.416782e+001
3.326660e+003,3.400564e+001
3.328588e+003,3.395723e+001
3.330517e+003,3.403149e+001
3.332445e+003,3.413581e+001
3.334374e+003,3.408323e+001
3.336302e+003,3.391037e+001
3.338231e+003,3.383613e+001
3.340159e+003,3.385443e+001
3.342088e+003,3.382224e+001
3.344016e+003,3.381763e+001
3.345945e+003,3.381932e+001
3.347873e+003,3.376565e+001
3.349802e+003,3.370771e+001
3.351730e+003,3.361868e+001
3.353659e+003,3.351301e+001
3.355587e+003,3.344147e+001
3.357516e+003,3.334721e+001
3.359444e+003,3.330632e+001
3.361373e+003,3.333210e+001
3.363302e+003,3.338500e+001
3.365230e+003,3.351192e+001
3.367158e+003,3.346151e+001
3.369087e+003,3.320989e+001
3.371015e+003,3.304849e+001
3.372944e+003,3.305550e+001
3.374872e+003,3.312572e+001
3.376801e+003,3.315913e+001
3.378729e+003,3.310986e+001
3.380658e+003,3.301257e+001
3.382586e+003,3.292942e+001
3.384515e+003,3.298965e+001
3.386443e+003,3.298172e+001
3.388372e+003,3.281509e+001
3.390300e+003,3.262485e+001
3.392229e+003,3.274682e+001
3.394157e+003,3.284939e+001
3.396086e+003,3.273031e+001
3.398014e+003,3.277151e+001
3.399943e+003,3.269352e+001
3.401871e+003,3.257159e+001
3.403800e+003,3.257535e+001
3.405728e+003,3.262102e+001
3.407657e+003,3.267417e+001
3.409585e+003,3.273118e+001
3.411514e+003,3.262660e+001
3.413442e+003,3.244212e+001
3.415371e+003,3.234516e+001
3.417299e+003,3.230645e+001
3.419228e+003,3.234566e+001
3.421156e+003,3.247479e+001
3.423085e+003,3.247053e+001
3.425013e+003,3.246251e+001
3.426942e+003,3.253407e+001
3.428870e+003,3.251393e+001
3.430799e+003,3.236411e+001
3.432727e+003,3.221584e+001
3.434656e+003,3.223467e+001
3.436584e+003,3.235523e+001
3.438513e+003,3.243407e+001
3.440441e+003,3.245159e+001
3.442370e+003,3.259966e+001
3.444298e+003,3.236600e+001
3.446227e+003,3.226970e+001
3.448155e+003,3.246281e+001
3.450084e+003,3.234971e+001
3.452012e+003,3.238792e+001
3.453941e+003,3.249033e+001
3.455869e+003,3.248265e+001
3.457798e+003,3.241008e+001
3.459726e+003,3.236322e+001
3.461655e+003,3.241315e+001
3.463583e+003,3.235844e+001
3.465512e+003,3.224025e+001
3.467440e+003,3.235515e+001
3.469369e+003,3.247915e+001
3.471297e+003,3.252799e+001
3.473226e+003,3.255474e+001
3.475154e+003,3.255807e+001
3.477083e+003,3.240639e+001
3.479011e+003,3.220338e+001
3.480940e+003,3.226462e+001
3.482868e+003,3.254485e+001
3.484797e+003,3.261034e+001
3.486725e+003,3.262455e+001
3.488654e+003,3.262085e+001
3.490582e+003,3.247742e+001
3.492511e+003,3.231158e+001
3.494439e+003,3.228555e+001
3.496368e+003,3.241391e+001
3.498296e+003,3.243315e+001
3.500225e+003,3.230407e+001
3.502153e+003,3.251502e+001
3.504082e+003,3.301828e+001
3.506010e+003,3.281130e+001
3.507939e+003,3.239210e+001
3.509867e+003,3.240076e+001
3.511796e+003,3.248804e+001
3.513724e+003,3.257614e+001
3.515653e+003,3.266639e+001
3.517581e+003,3.263410e+001
3.519510e+003,3.247083e+001
3.521438e+003,3.229968e+001
3.523367e+003,3.254034e+001
3.525295e+003,3.254790e+001
3.527224e+003,3.262643e+001
3.529152e+003,3.286476e+001
3.531081e+003,3.288644e+001
3.533009e+003,3.270865e+001
3.534938e+003,3.254746e+001
3.536866e+003,3.276905e+001
3.538795e+003,3.267389e+001
3.540723e+003,3.244014e+001
3.542652e+003,3.229111e+001
3.544580e+003,3.263586e+001
3.546509e+003,3.320681e+001
3.548437e+003,3.316710e+001
3.550366e+003,3.262170e+001
3.552294e+003,3.276740e+001
3.554223e+003,3.285427e+001
3.556151e+003,3.269136e+001
3.558080e+003,3.264871e+001
3.560008e+003,3.275023e+001
3.561937e+003,3.275629e+001
3.563865e+003,3.250178e+001
3.565794e+003,3.266129e+001
3.567722e+003,3.404535e+001
3.569651e+003,3.368197e+001
3.571579e+003,3.291916e+001
3.573508e+003,3.267736e+001
3.575436e+003,3.287262e+001
3.577365e+003,3.300164e+001
3.579293e+003,3.313966e+001
3.581222e+003,3.317250e+001
3.583150e+003,3.295786e+001
3.585079e+003,3.234265e+001
3.587007e+003,3.285837e+001
3.588936e+003,3.383086e+001
3.590864e+003,3.333278e+001
3.592793e+003,3.316624e+001
3.594721e+003,3.347972e+001
3.596650e+003,3.330035e+001
3.598578e+003,3.310288e+001
3.600507e+003,3.350751e+001
3.602435e+003,3.369361e+001
3.604364e+003,3.314763e+001
3.606292e+003,3.279990e+001
3.608221e+003,3.361768e+001
3.610149e+003,3.390630e+001
3.612078e+003,3.342167e+001
3.614006e+003,3.378244e+001
3.615935e+003,3.317065e+001
3.617863e+003,3.308998e+001
3.619792e+003,3.433945e+001
3.621720e+003,3.439680e+001
3.623649e+003,3.375999e+001
3.625577e+003,3.323095e+001
3.627506e+003,3.261626e+001
3.629434e+003,3.468148e+001
3.631363e+003,3.418204e+001
3.633291e+003,3.387125e+001
3.635220e+003,3.411516e+001
3.637148e+003,3.388950e+001
3.639077e+003,3.392685e+001
3.641005e+003,3.401253e+001
3.642934e+003,3.404887e+001
3.644862e+003,3.315760e+001
3.646791e+003,3.261607e+001
3.648719e+003,3.373465e+001
3.650648e+003,3.566406e+001
3.652576e+003,3.492020e+001
3.654505e+003,3.375515e+001
3.656433e+003,3.457454e+001
3.658362e+003,3.455708e+001
3.660290e+003,3.419545e+001
3.662219e+003,3.410572e+001
3.664147e+003,3.393643e+001
3.666076e+003,3.347236e+001
3.668004e+003,3.327493e+001
3.669933e+003,3.520227e+001
3.671861e+003,3.472707e+001
3.673790e+003,3.278756e+001
3.675718e+003,3.531413e+001
3.677647e+003,3.514569e+001
3.679575e+003,3.470297e+001
3.681504e+003,3.431222e+001
3.683432e+003,3.403831e+001
3.685361e+003,3.363796e+001
3.687289e+003,3.341794e+001
3.689218e+003,3.472941e+001
3.691146e+003,3.508964e+001
3.693075e+003,3.459804e+001
3.695003e+003,3.410903e+001
3.696932e+003,3.419087e+001
3.698860e+003,3.385641e+001
3.700789e+003,3.397724e+001
3.702717e+003,3.467773e+001
3.704646e+003,3.434830e+001
3.706574e+003,3.383308e+001
3.708503e+003,3.330001e+001
3.710431e+003,3.397640e+001
3.712360e+003,3.529873e+001
3.714288e+003,3.504804e+001
3.716217e+003,3.433043e+001
3.718145e+003,3.402821e+001
3.720074e+003,3.377757e+001
3.722002e+003,3.391408e+001
3.723931e+003,3.389841e+001
3.725859e+003,3.411601e+001
3.727788e+003,3.451499e+001
3.729716e+003,3.370560e+001
3.731645e+003,3.369085e+001
3.733573e+003,3.354457e+001
3.735502e+003,3.437431e+001
3.737430e+003,3.514261e+001
3.739359e+003,3.448449e+001
3.741287e+003,3.367391e+001
3.743216e+003,3.305184e+001
3.745144e+003,3.532466e+001
3.747073e+003,3.436491e+001
3.749001e+003,3.390137e+001
3.750930e+003,3.503152e+001
3.752858e+003,3.548098e+001
3.754787e+003,3.437099e+001
3.756715e+003,3.389561e+001
3.758644e+003,3.440851e+001
3.760572e+003,3.497456e+001
3.762500e+003,3.423141e+001
3.764429e+003,3.407588e+001
3.766358e+003,3.429610e+001
3.768286e+003,3.361701e+001
3.770215e+003,3.449478e+001
3.772143e+003,3.458395e+001
3.774072e+003,3.424100e+001
3.776000e+003,3.385745e+001
3.777928e+003,3.349337e+001
3.779857e+003,3.451727e+001
3.781786e+003,3.421009e+001
3.783714e+003,3.378197e+001
3.785643e+003,3.428455e+001
3.787571e+003,3.416467e+001
3.789500e+003,3.407100e+001
3.791428e+003,3.410390e+001
3.793356e+003,3.372758e+001
3.795285e+003,3.352990e+001
3.797214e+003,3.415596e+001
3.799142e+003,3.311750e+001
3.801071e+003,3.417579e+001
3.802999e+003,3.519964e+001
3.804927e+003,3.370095e+001
3.806856e+003,3.481392e+001
3.808785e+003,3.500121e+001
3.810713e+003,3.398959e+001
3.812642e+003,3.327055e+001
3.814570e+003,3.280325e+001
3.816499e+003,3.437326e+001
3.818427e+003,3.336210e+001
3.820355e+003,3.363985e+001
3.822284e+003,3.561019e+001
3.824213e+003,3.447266e+001
3.826141e+003,3.430822e+001
3.828070e+003,3.417349e+001
3.829998e+003,3.321500e+001
3.831927e+003,3.345911e+001
3.833855e+003,3.346400e+001
3.835783e+003,3.343027e+001
3.837712e+003,3.400769e+001
3.839641e+003,3.503083e+001
3.841569e+003,3.460117e+001
3.843498e+003,3.457337e+001
3.845426e+003,3.429361e+001
3.847354e+003,3.341394e+001
3.849283e+003,3.275029e+001
3.851211e+003,3.206898e+001
3.853140e+003,3.493491e+001
3.855069e+003,3.572468e+001
3.856997e+003,3.469415e+001
3.858926e+003,3.387259e+001
3.860854e+003,3.322848e+001
3.862782e+003,3.322423e+001
3.864711e+003,3.413398e+001
3.866639e+003,3.390241e+001
3.868568e+003,3.314799e+001
3.870497e+003,3.506137e+001
3.872425e+003,3.391490e+001
3.874354e+003,3.431462e+001
3.876282e+003,3.387910e+001
3.878210e+003,3.293489e+001
3.880139e+003,3.377972e+001
3.882067e+003,3.421709e+001
3.883996e+003,3.345126e+001
3.885925e+003,3.468570e+001
3.887853e+003,3.389397e+001
3.889781e+003,3.295173e+001
3.891710e+003,3.399979e+001
3.893638e+003,3.421817e+001
3.895567e+003,3.346945e+001
3.897495e+003,3.311970e+001
3.899424e+003,3.366356e+001
3.901353e+003,3.396609e+001
3.903281e+003,3.423995e+001
3.905209e+003,3.455302e+001
3.907138e+003,3.382739e+001
3.909066e+003,3.342560e+001
3.910995e+003,3.361449e+001
3.912924e+003,3.379601e+001
3.914852e+003,3.346087e+001
3.916781e+003,3.367381e+001
3.918709e+003,3.378898e+001
3.920637e+003,3.379775e+001
3.922566e+003,3.345299e+001
3.924494e+003,3.374582e+001
3.926423e+003,3.369347e+001
3.928352e+003,3.345393e+001
3.930280e+003,3.370899e+001
3.932208e+003,3.411327e+001
3.934137e+003,3.402728e+001
3.936065e+003,3.351586e+001
3.937994e+003,3.348626e+001
3.939922e+003,3.329564e+001
3.941851e+003,3.343806e+001
3.943780e+003,3.398401e+001
3.945708e+003,3.369068e+001
3.947636e+003,3.359195e+001
3.949565e+003,3.366006e+001
3.951493e+003,3.349532e+001
3.953422e+003,3.344522e+001
3.955350e+003,3.351631e+001
3.957279e+003,3.357405e+001
3.959208e+003,3.355286e+001
3.961136e+003,3.353417e+001
3.963064e+003,3.366270e+001
3.964993e+003,3.349707e+001
3.966921e+003,3.314854e+001
3.968850e+003,3.302587e+001
3.970778e+003,3.311069e+001
3.972707e+003,3.339701e+001
3.974635e+003,3.367075e+001
3.976564e+003,3.367620e+001
3.978492e+003,3.353148e+001
3.980421e+003,3.351769e+001
3.982349e+003,3.338834e+001
3.984278e+003,3.315469e+001
3.986206e+003,3.324694e+001
3.988135e+003,3.334741e+001
3.990063e+003,3.356380e+001
3.991992e+003,3.353458e+001
3.993920e+003,3.322343e+001
3.995849e+003,3.321800e+001
3.997777e+003,3.329354e+001
3.999706e+003,3.323508e+001
