3.991992e+002,3.022441e+001
4.011277e+002,2.912072e+001
4.030562e+002,2.781031e+001
4.049847e+002,2.614565e+001
4.069132e+002,2.551516e+001
4.088417e+002,2.479734e+001
4.107702e+002,2.348122e+001
4.126987e+002,2.133946e+001
4.146272e+002,1.931062e+001
4.165557e+002,1.749787e+001
4.184842e+002,1.655562e+001
4.204127e+002,1.651487e+001
4.223412e+002,1.606144e+001
4.242697e+002,1.494475e+001
4.261982e+002,1.458905e+001
4.281267e+002,1.440819e+001
4.300552e+002,1.421151e+001
4.319837e+002,1.387401e+001
4.339122e+002,1.355462e+001
4.358407e+002,1.304089e+001
4.377692e+002,1.229128e+001
4.396977e+002,1.137746e+001
4.416262e+002,1.097213e+001
4.435547e+002,1.072103e+001
4.454832e+002,1.067308e+001
4.474117e+002,1.060778e+001
4.493401e+002,1.063805e+001
4.512686e+002,1.059727e+001
4.531971e+002,1.055239e+001
4.551256e+002,1.035856e+001
4.570541e+002,1.000408e+001
4.589826e+002,1.000000e+001
4.609111e+002,1.040098e+001
4.628396e+002,1.048618e+001
4.647681e+002,1.052030e+001
4.666966e+002,1.049295e+001
4.686251e+002,1.029274e+001
4.705536e+002,1.026102e+001
4.724821e+002,1.032836e+001
4.744106e+002,1.029984e+001
4.763391e+002,1.036021e+001
4.782676e+002,1.038353e+001
4.801961e+002,1.034641e+001
4.821246e+002,1.032021e+001
4.840531e+002,1.034431e+001
4.859816e+002,1.038173e+001
4.879101e+002,1.064012e+001
4.898386e+002,1.080277e+001
4.917671e+002,1.099371e+001
4.936956e+002,1.124398e+001
4.956241e+002,1.161658e+001
4.975526e+002,1.216510e+001
4.994811e+002,1.300926e+001
5.014096e+002,1.406045e+001
5.033381e+002,1.515395e+001
5.052666e+002,1.584379e+001
5.071951e+002,1.625863e+001
5.091236e+002,1.608691e+001
5.110521e+002,1.526118e+001
5.129806e+002,1.441486e+001
5.149091e+002,1.415918e+001
5.168376e+002,1.476667e+001
5.187661e+002,1.602415e+001
5.206946e+002,1.772372e+001
5.226231e+002,1.964603e+001
5.245516e+002,2.152654e+001
5.264801e+002,2.359864e+001
5.284086e+002,2.551049e+001
5.303371e+002,2.772731e+001
5.322656e+002,3.041347e+001
5.341941e+002,3.357234e+001
5.361226e+002,3.684143e+001
5.380511e+002,3.936636e+001
5.399796e+002,4.015705e+001
5.419081e+002,3.894646e+001
5.438365e+002,3.603791e+001
5.457651e+002,3.169984e+001
5.476936e+002,2.684275e+001
5.496221e+002,2.313169e+001
5.515506e+002,2.142629e+001
5.534791e+002,2.224975e+001
5.554076e+002,2.512747e+001
5.573361e+002,2.953991e+001
5.592646e+002,3.453906e+001
5.611931e+002,3.958867e+001
5.631216e+002,4.473352e+001
5.650500e+002,4.960942e+001
5.669786e+002,5.441956e+001
5.689070e+002,5.915088e+001
5.708356e+002,6.319547e+001
5.727640e+002,6.598277e+001
5.746926e+002,6.745303e+001
5.766210e+002,6.790605e+001
5.785496e+002,6.823367e+001
5.804780e+002,6.890207e+001
5.824066e+002,7.000171e+001
5.843350e+002,7.250317e+001
5.862635e+002,7.655282e+001
5.881920e+002,8.068536e+001
5.901205e+002,8.398471e+001
5.920490e+002,8.625579e+001
5.939775e+002,8.714777e+001
5.959060e+002,8.684158e+001
5.978345e+002,8.553187e+001
5.997631e+002,8.295615e+001
6.016915e+002,7.924470e+001
6.036201e+002,7.617614e+001
6.055485e+002,7.551323e+001
6.074771e+002,7.681870e+001
6.094055e+002,7.795889e+001
6.113340e+002,7.754366e+001
6.132625e+002,7.541974e+001
6.151910e+002,7.137482e+001
6.171195e+002,6.515495e+001
6.190480e+002,5.776415e+001
6.209765e+002,5.002464e+001
6.229050e+002,4.377317e+001
6.248335e+002,4.181304e+001
6.267620e+002,4.405758e+001
6.286905e+002,4.843210e+001
6.306190e+002,5.273449e+001
6.325475e+002,5.581293e+001
6.344760e+002,5.718388e+001
6.364045e+002,5.698711e+001
6.383330e+002,5.552246e+001
6.402615e+002,5.342291e+001
6.421900e+002,5.113434e+001
6.441185e+002,4.883896e+001
6.460470e+002,4.595476e+001
6.479755e+002,4.260355e+001
6.499040e+002,3.958421e+001
6.518325e+002,3.750548e+001
6.537610e+002,3.561156e+001
6.556895e+002,3.364141e+001
6.576180e+002,3.159047e+001
6.595465e+002,3.007175e+001
6.614750e+002,2.901692e+001
6.634035e+002,2.794677e+001
6.653320e+002,2.660907e+001
6.672605e+002,2.436309e+001
6.691890e+002,2.150603e+001
6.711175e+002,2.133124e+001
6.730460e+002,2.058697e+001
6.749745e+002,1.944019e+001
6.769030e+002,1.826405e+001
6.788315e+002,1.727108e+001
6.807599e+002,1.649791e+001
6.826885e+002,1.612140e+001
6.846169e+002,1.574111e+001
6.865455e+002,1.527995e+001
6.884739e+002,1.459186e+001
6.904025e+002,1.415236e+001
6.923309e+002,1.405867e+001
6.942595e+002,1.416343e+001
6.961880e+002,1.404729e+001
6.981165e+002,1.375895e+001
7.000450e+002,1.336570e+001
7.019734e+002,1.294919e+001
7.039020e+002,1.245391e+001
7.058304e+002,1.208355e+001
7.077590e+002,1.187574e+001
7.096874e+002,1.184509e+001
7.116160e+002,1.183295e+001
7.135444e+002,1.179928e+001
7.154730e+002,1.169858e+001
7.174014e+002,1.169182e+001
7.193300e+002,1.187158e+001
7.212584e+002,1.225176e+001
7.231870e+002,1.252328e+001
7.251154e+002,1.288855e+001
7.270439e+002,1.359733e+001
7.289724e+002,1.471774e+001
7.309009e+002,1.620048e+001
7.328294e+002,1.811267e+001
7.347579e+002,2.035120e+001
7.366864e+002,2.284456e+001
7.386149e+002,2.566680e+001
7.405434e+002,2.872800e+001
7.424719e+002,3.157852e+001
7.444004e+002,3.395943e+001
7.463289e+002,3.615668e+001
7.482574e+002,3.899881e+001
7.501859e+002,4.318353e+001
7.521144e+002,4.840082e+001
7.540429e+002,5.397208e+001
7.559714e+002,5.939325e+001
7.578999e+002,6.444728e+001
7.598284e+002,6.906189e+001
7.617569e+002,7.348451e+001
7.636854e+002,7.764082e+001
7.656139e+002,8.153480e+001
7.675424e+002,8.495525e+001
7.694709e+002,8.795206e+001
7.713994e+002,9.051704e+001
7.733279e+002,9.284476e+001
7.752564e+002,9.480764e+001
7.771849e+002,9.636906e+001
7.791134e+002,9.753703e+001
7.810419e+002,9.864665e+001
7.829704e+002,9.945975e+001
7.848989e+002,9.994399e+001
7.868274e+002,1.000000e+002
7.887559e+002,9.981423e+001
7.906844e+002,9.930022e+001
7.926129e+002,9.861216e+001
7.945414e+002,9.759425e+001
7.964699e+002,9.625849e+001
7.983984e+002,9.451338e+001
8.003269e+002,9.267030e+001
8.022554e+002,9.055965e+001
8.041839e+002,8.821564e+001
8.061124e+002,8.557032e+001
8.080409e+002,8.282405e+001
8.099694e+002,7.988156e+001
8.118979e+002,7.678190e+001
8.138264e+002,7.345244e+001
8.157549e+002,7.011050e+001
8.176833e+002,6.677510e+001
8.196119e+002,6.349973e+001
8.215403e+002,6.020351e+001
8.234689e+002,5.694886e+001
8.253973e+002,5.376042e+001
8.273259e+002,5.069370e+001
8.292543e+002,4.780617e+001
8.311829e+002,4.498790e+001
8.331113e+002,4.225781e+001
8.350399e+002,3.974925e+001
8.369683e+002,3.743749e+001
8.388969e+002,3.533604e+001
8.408253e+002,3.341424e+001
8.427538e+002,3.166124e+001
8.446824e+002,3.005325e+001
8.466108e+002,2.860160e+001
8.485394e+002,2.720175e+001
8.504678e+002,2.591648e+001
8.523964e+002,2.484745e+001
8.543248e+002,2.380866e+001
8.562534e+002,2.285499e+001
8.581818e+002,2.197693e+001
8.601104e+002,2.109249e+001
8.620388e+002,2.023400e+001
8.639673e+002,1.947442e+001
8.658958e+002,1.875910e+001
8.678243e+002,1.812122e+001
8.697528e+002,1.749499e+001
8.716813e+002,1.688765e+001
8.736098e+002,1.625382e+001
8.755383e+002,1.570665e+001
8.774668e+002,1.523501e+001
8.793953e+002,1.479112e+001
8.813238e+002,1.435984e+001
8.832523e+002,1.397817e+001
8.851808e+002,1.364935e+001
8.871093e+002,1.335169e+001
8.890378e+002,1.302124e+001
8.909663e+002,1.274800e+001
8.928948e+002,1.248301e+001
8.948233e+002,1.227578e+001
8.967518e+002,1.208189e+001
8.986803e+002,1.184363e+001
9.006088e+002,1.163059e+001
9.025373e+002,1.150983e+001
9.044658e+002,1.134252e+001
9.063943e+002,1.119825e+001
9.083228e+002,1.107461e+001
9.102513e+002,1.095709e+001
9.121798e+002,1.082328e+001
9.141083e+002,1.075304e+001
9.160368e+002,1.063582e+001
9.179653e+002,1.052626e+001
9.198938e+002,1.047045e+001
9.218223e+002,1.045476e+001
9.237508e+002,1.040178e+001
9.256793e+002,1.035868e+001
9.276078e+002,1.029706e+001
9.295363e+002,1.025324e+001
9.314648e+002,1.021679e+001
9.333932e+002,1.016649e+001
9.353218e+002,1.011731e+001
9.372502e+002,1.011315e+001
9.391788e+002,1.009803e+001
9.411072e+002,1.011307e+001
9.430358e+002,1.009466e+001
9.449643e+002,1.009225e+001
9.468928e+002,1.010024e+001
9.488213e+002,1.010055e+001
9.507498e+002,1.008085e+001
9.526783e+002,1.010529e+001
9.546068e+002,1.009618e+001
9.565353e+002,1.008607e+001
9.584637e+002,1.006862e+001
9.603923e+002,1.008590e+001
9.623207e+002,1.010326e+001
9.642493e+002,1.010836e+001
9.661777e+002,1.008086e+001
9.681063e+002,1.006040e+001
9.700347e+002,1.004764e+001
9.719633e+002,1.007674e+001
9.738917e+002,1.008369e+001
9.758203e+002,1.010248e+001
9.777487e+002,1.008701e+001
9.796772e+002,1.006331e+001
9.816057e+002,1.004579e+001
9.835342e+002,1.009452e+001
9.854627e+002,1.010583e+001
9.873912e+002,1.007402e+001
9.893197e+002,1.005161e+001
9.912482e+002,1.006631e+001
9.931768e+002,1.004540e+001
9.951052e+002,1.004048e+001
9.970338e+002,1.004004e+001
9.989622e+002,1.005726e+001
1.000891e+003,1.003592e+001
1.002819e+003,1.007411e+001
1.004748e+003,1.011352e+001
1.006676e+003,1.012684e+001
1.008605e+003,1.011499e+001
1.010533e+003,1.012548e+001
1.012462e+003,1.012409e+001
1.014390e+003,1.011470e+001
1.016319e+003,1.009008e+001
1.018247e+003,1.009816e+001
1.020176e+003,1.009125e+001
1.022104e+003,1.011398e+001
1.024033e+003,1.014910e+001
1.025961e+003,1.019074e+001
1.027890e+003,1.019728e+001
1.029818e+003,1.022387e+001
1.031747e+003,1.024048e+001
1.033675e+003,1.023878e+001
1.035604e+003,1.022520e+001
1.037532e+003,1.023170e+001
1.039461e+003,1.024317e+001
1.041389e+003,1.030866e+001
1.043318e+003,1.029953e+001
1.045246e+003,1.029279e+001
1.047175e+003,1.033225e+001
1.049103e+003,1.037217e+001
1.051032e+003,1.034416e+001
1.052960e+003,1.033131e+001
1.054889e+003,1.032461e+001
1.056817e+003,1.035010e+001
1.058746e+003,1.035298e+001
1.060674e+003,1.034835e+001
1.062603e+003,1.032483e+001
1.064531e+003,1.038550e+001
1.066460e+003,1.044345e+001
1.068388e+003,1.048545e+001
1.070317e+003,1.052880e+001
1.072245e+003,1.058706e+001
1.074174e+003,1.060616e+001
1.076102e+003,1.065670e+001
1.078031e+003,1.069418e+001
1.079959e+003,1.076634e+001
1.081888e+003,1.082410e+001
1.083816e+003,1.086252e+001
1.085745e+003,1.089685e+001
1.087673e+003,1.097411e+001
1.089602e+003,1.103232e+001
1.091530e+003,1.111028e+001
1.093459e+003,1.116513e+001
1.095387e+003,1.126726e+001
1.097316e+003,1.132378e+001
1.099244e+003,1.137552e+001
1.101173e+003,1.143491e+001
1.103101e+003,1.148845e+001
1.105030e+003,1.143488e+001
1.106958e+003,1.135705e+001
1.108887e+003,1.127209e+001
1.110815e+003,1.124618e+001
1.112744e+003,1.126004e+001
1.114672e+003,1.132790e+001
1.116601e+003,1.140350e+001
1.118529e+003,1.149889e+001
1.120458e+003,1.158229e+001
1.122386e+003,1.168828e+001
1.124315e+003,1.180144e+001
1.126243e+003,1.194222e+001
1.128172e+003,1.206158e+001
1.130100e+003,1.222053e+001
1.132029e+003,1.238059e+001
1.133957e+003,1.254393e+001
1.135886e+003,1.266688e+001
1.137814e+003,1.278619e+001
1.139743e+003,1.290920e+001
1.141671e+003,1.309889e+001
1.143600e+003,1.321136e+001
1.145528e+003,1.332437e+001
1.147457e+003,1.346488e+001
1.149385e+003,1.361612e+001
1.151314e+003,1.376650e+001
1.153242e+003,1.393175e+001
1.155171e+003,1.406344e+001
1.157099e+003,1.420766e+001
1.159028e+003,1.433208e+001
1.160956e+003,1.450327e+001
1.162885e+003,1.468358e+001
1.164813e+003,1.482472e+001
1.166742e+003,1.493999e+001
1.168670e+003,1.509959e+001
1.170599e+003,1.523142e+001
1.172527e+003,1.537788e+001
1.174456e+003,1.554497e+001
1.176384e+003,1.572227e+001
1.178313e+003,1.587563e+001
1.180241e+003,1.601927e+001
1.182170e+003,1.611949e+001
1.184098e+003,1.628227e+001
1.186027e+003,1.642660e+001
1.187955e+003,1.655041e+001
1.189884e+003,1.667757e+001
1.191812e+003,1.681887e+001
1.193741e+003,1.692462e+001
1.195669e+003,1.707772e+001
1.197598e+003,1.722665e+001
1.199526e+003,1.736617e+001
1.201455e+003,1.751544e+001
1.203383e+003,1.765930e+001
1.205312e+003,1.778817e+001
1.207240e+003,1.792966e+001
1.209169e+003,1.805072e+001
1.211097e+003,1.818614e+001
1.213026e+003,1.833018e+001
1.214954e+003,1.848739e+001
1.216883e+003,1.863345e+001
1.218811e+003,1.881267e+001
1.220740e+003,1.894304e+001
1.222668e+003,1.903712e+001
1.224597e+003,1.916752e+001
1.226525e+003,1.931196e+001
1.228453e+003,1.942826e+001
1.230382e+003,1.956161e+001
1.232311e+003,1.968462e+001
1.234239e+003,1.983379e+001
1.236167e+003,1.998288e+001
1.238096e+003,2.013919e+001
1.240025e+003,2.025460e+001
1.241953e+003,2.036300e+001
1.243882e+003,2.048776e+001
1.245810e+003,2.064070e+001
1.247739e+003,2.076814e+001
1.249667e+003,2.087382e+001
1.251596e+003,2.098549e+001
1.253524e+003,2.114255e+001
1.255453e+003,2.129896e+001
1.257381e+003,2.142049e+001
1.259310e+003,2.155374e+001
1.261238e+003,2.167287e+001
1.263167e+003,2.177289e+001
1.265095e+003,2.190727e+001
1.267024e+003,2.203194e+001
1.268952e+003,2.216120e+001
1.270880e+003,2.228342e+001
1.272809e+003,2.238702e+001
1.274738e+003,2.249998e+001
1.276666e+003,2.261927e+001
1.278594e+003,2.273629e+001
1.280523e+003,2.286095e+001
1.282452e+003,2.295913e+001
1.284380e+003,2.306828e+001
1.286308e+003,2.318273e+001
1.288237e+003,2.332341e+001
1.290166e+003,2.343753e+001
1.292094e+003,2.354271e+001
1.294022e+003,2.364191e+001
1.295951e+003,2.375826e+001
1.297880e+003,2.386521e+001
1.299808e+003,2.398700e+001
1.301736e+003,2.409285e+001
1.303665e+003,2.420493e+001
1.305594e+003,2.431530e+001
1.307522e+003,2.443366e+001
1.309450e+003,2.454227e+001
1.311379e+003,2.465389e+001
1.313307e+003,2.476758e+001
1.315236e+003,2.487632e+001
1.317164e+003,2.498619e+001
1.319093e+003,2.509421e+001
1.321021e+003,2.516678e+001
1.322950e+003,2.526159e+001
1.324878e+003,2.535365e+001
1.326807e+003,2.543487e+001
1.328735e+003,2.550348e+001
1.330664e+003,2.560827e+001
1.332592e+003,2.568288e+001
1.334521e+003,2.576919e+001
1.336449e+003,2.588277e+001
1.338378e+003,2.604506e+001
1.340307e+003,2.613516e+001
1.342235e+003,2.614366e+001
1.344163e+003,2.618967e+001
1.346092e+003,2.628268e+001
1.348021e+003,2.638667e+001
1.349949e+003,2.644905e+001
1.351877e+003,2.650519e+001
1.353806e+003,2.661962e+001
1.355734e+003,2.670983e+001
1.357663e+003,2.676816e+001
1.359591e+003,2.685299e+001
1.361520e+003,2.697987e+001
1.363448e+003,2.703723e+001
1.365377e+003,2.704988e+001
1.367305e+003,2.711136e+001
1.369234e+003,2.715498e+001
1.371162e+003,2.721263e+001
1.373091e+003,2.734206e+001
1.375019e+003,2.742614e+001
1.376948e+003,2.743623e+001
1.378876e+003,2.746437e+001
1.380805e+003,2.748677e+001
1.382733e+003,2.750532e+001
1.384662e+003,2.757996e+001
1.386590e+003,2.770222e+001
1.388519e+003,2.770462e+001
1.390447e+003,2.767145e+001
1.392376e+003,2.771032e+001
1.394304e+003,2.783683e+001
1.396233e+003,2.788828e+001
1.398161e+003,2.791938e+001
1.400090e+003,2.793462e+001
1.402018e+003,2.794490e+001
1.403947e+003,2.810213e+001
1.405875e+003,2.825987e+001
1.407804e+003,2.834955e+001
1.409732e+003,2.847545e+001
1.411661e+003,2.863493e+001
1.413589e+003,2.875165e+001
1.415518e+003,2.887903e+001
1.417446e+003,2.901824e+001
1.419375e+003,2.877797e+001
1.421303e+003,2.826425e+001
1.423232e+003,2.762916e+001
1.425160e+003,2.663985e+001
1.427089e+003,2.600843e+001
1.429017e+003,2.560349e+001
1.430946e+003,2.538353e+001
1.432874e+003,2.535942e+001
1.434803e+003,2.554893e+001
1.436731e+003,2.595761e+001
1.438660e+003,2.629813e+001
1.440588e+003,2.660868e+001
1.442517e+003,2.697504e+001
1.444445e+003,2.727254e+001
1.446374e+003,2.755620e+001
1.448302e+003,2.777876e+001
1.450231e+003,2.788262e+001
1.452159e+003,2.798761e+001
1.454088e+003,2.814682e+001
1.456016e+003,2.848496e+001
1.457945e+003,2.864073e+001
1.459873e+003,2.836994e+001
1.461802e+003,2.831737e+001
1.463730e+003,2.843261e+001
1.465659e+003,2.851719e+001
1.467587e+003,2.849910e+001
1.469516e+003,2.860082e+001
1.471444e+003,2.889870e+001
1.473373e+003,2.920762e+001
1.475301e+003,2.919875e+001
1.477230e+003,2.918831e+001
1.479158e+003,2.921455e+001
1.481087e+003,2.933804e+001
1.483015e+003,2.941426e+001
1.484944e+003,2.955194e+001
1.486872e+003,2.979449e+001
1.488801e+003,3.003662e+001
1.490729e+003,3.003300e+001
1.492658e+003,2.996668e+001
1.494586e+003,3.010555e+001
1.496515e+003,3.039944e+001
1.498443e+003,3.045122e+001
1.500372e+003,3.046866e+001
1.502300e+003,3.053562e+001
1.504229e+003,3.068383e+001
1.506157e+003,3.116507e+001
1.508086e+003,3.144150e+001
1.510014e+003,3.115586e+001
1.511943e+003,3.109775e+001
1.513871e+003,3.116029e+001
1.515800e+003,3.144918e+001
1.517728e+003,3.161169e+001
1.519657e+003,3.169698e+001
1.521585e+003,3.197983e+001
1.523514e+003,3.180822e+001
1.525442e+003,3.182048e+001
1.527371e+003,3.185041e+001
1.529299e+003,3.179574e+001
1.531228e+003,3.185810e+001
1.533156e+003,3.209356e+001
1.535085e+003,3.212309e+001
1.537013e+003,3.217078e+001
1.538942e+003,3.255082e+001
1.540870e+003,3.297229e+001
1.542799e+003,3.279578e+001
1.544727e+003,3.265533e+001
1.546656e+003,3.243571e+001
1.548584e+003,3.245036e+001
1.550513e+003,3.253242e+001
1.552441e+003,3.255969e+001
1.554370e+003,3.274768e+001
1.556298e+003,3.287325e+001
1.558227e+003,3.315313e+001
1.560155e+003,3.296498e+001
1.562084e+003,3.277219e+001
1.564012e+003,3.276769e+001
1.565941e+003,3.280416e+001
1.567869e+003,3.287391e+001
1.569798e+003,3.295772e+001
1.571726e+003,3.284299e+001
1.573655e+003,3.287472e+001
1.575583e+003,3.306490e+001
1.577512e+003,3.307426e+001
1.579440e+003,3.295144e+001
1.581369e+003,3.293523e+001
1.583297e+003,3.295935e+001
1.585226e+003,3.296678e+001
1.587154e+003,3.297497e+001
1.589083e+003,3.300544e+001
1.591011e+003,3.303634e+001
1.592940e+003,3.308303e+001
1.594868e+003,3.312830e+001
1.596797e+003,3.312218e+001
1.598725e+003,3.309374e+001
1.600654e+003,3.309890e+001
1.602582e+003,3.313005e+001
1.604511e+003,3.312502e+001
1.606439e+003,3.312832e+001
1.608368e+003,3.315812e+001
1.610296e+003,3.311703e+001
1.612225e+003,3.306415e+001
1.614153e+003,3.310902e+001
1.616082e+003,3.327277e+001
1.618010e+003,3.317136e+001
1.619939e+003,3.308385e+001
1.621867e+003,3.318059e+001
1.623796e+003,3.322332e+001
1.625724e+003,3.311442e+001
1.627653e+003,3.312448e+001
1.629581e+003,3.304627e+001
1.631510e+003,3.301665e+001
1.633438e+003,3.311948e+001
1.635367e+003,3.342458e+001
1.637295e+003,3.331302e+001
1.639224e+003,3.310452e+001
1.641152e+003,3.303648e+001
1.643081e+003,3.306683e+001
1.645009e+003,3.327615e+001
1.646938e+003,3.358101e+001
1.648866e+003,3.333867e+001
1.650795e+003,3.330415e+001
1.652723e+003,3.366532e+001
1.654652e+003,3.344280e+001
1.656580e+003,3.319211e+001
1.658509e+003,3.311353e+001
1.660437e+003,3.315985e+001
1.662366e+003,3.331316e+001
1.664294e+003,3.323970e+001
1.666223e+003,3.321418e+001
1.668151e+003,3.344157e+001
1.670080e+003,3.360681e+001
1.672008e+003,3.348646e+001
1.673937e+003,3.350337e+001
1.675865e+003,3.352802e+001
1.677794e+003,3.347180e+001
1.679722e+003,3.360792e+001
1.681651e+003,3.376372e+001
1.683579e+003,3.406877e+001
1.685508e+003,3.395552e+001
1.687436e+003,3.377928e+001
1.689365e+003,3.378924e+001
1.691293e+003,3.376421e+001
1.693222e+003,3.378676e+001
1.695150e+003,3.406026e+001
1.697079e+003,3.429261e+001
1.699007e+003,3.430189e+001
1.700936e+003,3.430809e+001
1.702864e+003,3.422062e+001
1.704793e+003,3.433372e+001
1.706721e+003,3.429971e+001
1.708650e+003,3.418170e+001
1.710578e+003,3.419920e+001
1.712507e+003,3.429365e+001
1.714435e+003,3.458057e+001
1.716364e+003,3.484327e+001
1.718292e+003,3.468663e+001
1.720221e+003,3.437978e+001
1.722149e+003,3.434798e+001
1.724078e+003,3.435479e+001
1.726006e+003,3.431811e+001
1.727935e+003,3.439290e+001
1.729863e+003,3.459182e+001
1.731792e+003,3.476206e+001
1.733720e+003,3.503683e+001
1.735649e+003,3.486629e+001
1.737577e+003,3.477276e+001
1.739506e+003,3.492236e+001
1.741434e+003,3.498608e+001
1.743363e+003,3.508508e+001
1.745291e+003,3.514851e+001
1.747220e+003,3.531154e+001
1.749148e+003,3.542952e+001
1.751077e+003,3.538072e+001
1.753005e+003,3.523923e+001
1.754934e+003,3.522789e+001
1.756862e+003,3.537527e+001
1.758791e+003,3.540197e+001
1.760719e+003,3.548250e+001
1.762648e+003,3.551730e+001
1.764576e+003,3.545837e+001
1.766505e+003,3.554832e+001
1.768433e+003,3.569354e+001
1.770362e+003,3.583611e+001
1.772290e+003,3.607355e+001
1.774219e+003,3.593226e+001
1.776147e+003,3.581817e+001
1.778076e+003,3.580090e+001
1.780004e+003,3.590002e+001
1.781933e+003,3.590215e+001
1.783861e+003,3.591322e+001
1.785790e+003,3.596724e+001
1.787718e+003,3.596642e+001
1.789647e+003,3.608380e+001
1.791575e+003,3.633081e+001
1.793504e+003,3.632827e+001
1.795432e+003,3.627482e+001
1.797361e+003,3.627839e+001
1.799289e+003,3.634340e+001
1.801218e+003,3.638085e+001
1.803146e+003,3.628921e+001
1.805075e+003,3.626402e+001
1.807003e+003,3.633334e+001
1.808932e+003,3.641846e+001
1.810860e+003,3.646092e+001
1.812789e+003,3.642162e+001
1.814717e+003,3.638849e+001
1.816646e+003,3.642596e+001
1.818574e+003,3.643657e+001
1.820503e+003,3.647955e+001
1.822431e+003,3.657079e+001
1.824360e+003,3.671209e+001
1.826288e+003,3.671696e+001
1.828217e+003,3.677750e+001
1.830145e+003,3.687239e+001
1.832074e+003,3.673106e+001
1.834002e+003,3.669150e+001
1.835931e+003,3.674745e+001
1.837859e+003,3.679857e+001
1.839788e+003,3.681237e+001
1.841716e+003,3.688257e+001
1.843645e+003,3.706480e+001
1.845573e+003,3.705809e+001
1.847502e+003,3.698322e+001
1.849430e+003,3.693042e+001
1.851359e+003,3.689968e+001
1.853287e+003,3.692686e+001
1.855216e+003,3.695129e+001
1.857144e+003,3.696928e+001
1.859073e+003,3.699329e+001
1.861001e+003,3.702371e+001
1.862930e+003,3.704046e+001
1.864858e+003,3.708387e+001
1.866786e+003,3.724220e+001
1.868715e+003,3.739737e+001
1.870644e+003,3.725175e+001
1.872572e+003,3.710822e+001
1.874500e+003,3.708462e+001
1.876429e+003,3.711522e+001
1.878358e+003,3.713052e+001
1.880286e+003,3.711960e+001
1.882215e+003,3.714441e+001
1.884143e+003,3.718621e+001
1.886072e+003,3.717815e+001
1.888000e+003,3.719740e+001
1.889929e+003,3.723827e+001
1.891857e+003,3.716562e+001
1.893786e+003,3.716455e+001
1.895714e+003,3.717541e+001
1.897643e+003,3.713010e+001
1.899571e+003,3.711220e+001
1.901500e+003,3.711266e+001
1.903428e+003,3.709188e+001
1.905357e+003,3.707751e+001
1.907285e+003,3.707968e+001
1.909214e+003,3.709270e+001
1.911142e+003,3.702499e+001
1.913071e+003,3.697579e+001
1.914999e+003,3.698244e+001
1.916927e+003,3.703344e+001
1.918856e+003,3.698653e+001
1.920785e+003,3.692799e+001
1.922713e+003,3.700020e+001
1.924641e+003,3.695352e+001
1.926570e+003,3.687912e+001
1.928499e+003,3.685497e+001
1.930427e+003,3.688095e+001
1.932355e+003,3.691147e+001
1.934284e+003,3.691007e+001
1.936213e+003,3.691016e+001
1.938141e+003,3.690253e+001
1.940069e+003,3.692918e+001
1.941998e+003,3.703634e+001
1.943927e+003,3.704829e+001
1.945855e+003,3.700684e+001
1.947783e+003,3.697843e+001
1.949712e+003,3.697363e+001
1.951641e+003,3.699552e+001
1.953569e+003,3.703271e+001
1.955497e+003,3.704331e+001
1.957426e+003,3.702930e+001
1.959354e+003,3.703100e+001
1.961283e+003,3.704017e+001
1.963211e+003,3.703850e+001
1.965140e+003,3.708005e+001
1.967068e+003,3.716423e+001
1.968997e+003,3.711977e+001
1.970925e+003,3.710224e+001
1.972854e+003,3.711327e+001
1.974782e+003,3.712181e+001
1.976711e+003,3.712958e+001
1.978639e+003,3.713357e+001
1.980568e+003,3.711689e+001
1.982496e+003,3.711730e+001
1.984425e+003,3.714790e+001
1.986354e+003,3.718870e+001
1.988282e+003,3.722546e+001
1.990210e+003,3.724864e+001
1.992139e+003,3.728078e+001
1.994068e+003,3.724065e+001
1.995996e+003,3.719314e+001
1.997924e+003,3.720191e+001
1.999853e+003,3.720556e+001
2.001781e+003,3.718424e+001
2.003710e+003,3.717660e+001
2.005638e+003,3.719008e+001
2.007567e+003,3.717836e+001
2.009495e+003,3.716937e+001
2.011424e+003,3.717509e+001
2.013352e+003,3.719108e+001
2.015281e+003,3.721820e+001
2.017209e+003,3.723254e+001
2.019138e+003,3.718616e+001
2.021066e+003,3.716502e+001
2.022995e+003,3.717453e+001
2.024923e+003,3.717763e+001
2.026852e+003,3.714439e+001
2.028780e+003,3.714323e+001
2.030709e+003,3.719569e+001
2.032637e+003,3.724125e+001
2.034566e+003,3.723346e+001
2.036494e+003,3.721492e+001
2.038423e+003,3.721945e+001
2.040351e+003,3.725214e+001
2.042280e+003,3.725176e+001
2.044208e+003,3.724075e+001
2.046137e+003,3.725012e+001
2.048065e+003,3.726553e+001
2.049994e+003,3.727444e+001
2.051922e+003,3.728540e+001
2.053851e+003,3.729575e+001
2.055779e+003,3.730354e+001
2.057708e+003,3.730373e+001
2.059636e+003,3.732184e+001
2.061565e+003,3.733714e+001
2.063493e+003,3.736697e+001
2.065422e+003,3.737871e+001
2.067350e+003,3.736810e+001
2.069279e+003,3.737980e+001
2.071207e+003,3.739806e+001
2.073136e+003,3.742296e+001
2.075064e+003,3.742632e+001
2.076993e+003,3.740191e+001
2.078921e+003,3.739523e+001
2.080850e+003,3.741866e+001
2.082778e+003,3.742664e+001
2.084707e+003,3.743294e+001
2.086635e+003,3.744427e+001
2.088564e+003,3.746188e+001
2.090492e+003,3.746455e+001
2.092421e+003,3.747840e+001
2.094349e+003,3.752499e+001
2.096278e+003,3.753433e+001
2.098206e+003,3.753126e+001
2.100135e+003,3.752032e+001
2.102063e+003,3.751923e+001
2.103992e+003,3.752386e+001
2.105920e+003,3.753863e+001
2.107849e+003,3.754767e+001
2.109777e+003,3.755040e+001
2.111706e+003,3.755169e+001
2.113634e+003,3.755566e+001
2.115563e+003,3.755655e+001
2.117491e+003,3.757227e+001
2.119420e+003,3.758212e+001
2.121348e+003,3.758006e+001
2.123277e+003,3.757900e+001
2.125205e+003,3.757186e+001
2.127134e+003,3.758737e+001
2.129062e+003,3.761913e+001
2.130991e+003,3.761087e+001
2.132919e+003,3.761345e+001
2.134848e+003,3.763168e+001
2.136776e+003,3.765956e+001
2.138705e+003,3.764174e+001
2.140633e+003,3.761456e+001
2.142562e+003,3.763048e+001
2.144490e+003,3.763406e+001
2.146419e+003,3.762405e+001
2.148347e+003,3.763793e+001
2.150276e+003,3.765733e+001
2.152204e+003,3.766173e+001
2.154133e+003,3.764435e+001
2.156061e+003,3.764978e+001
2.157990e+003,3.766480e+001
2.159918e+003,3.767022e+001
2.161847e+003,3.766507e+001
2.163775e+003,3.768138e+001
2.165704e+003,3.768053e+001
2.167632e+003,3.768174e+001
2.169561e+003,3.768729e+001
2.171489e+003,3.769373e+001
2.173418e+003,3.769118e+001
2.175346e+003,3.767580e+001
2.177275e+003,3.767390e+001
2.179203e+003,3.767605e+001
2.181132e+003,3.767917e+001
2.183060e+003,3.766457e+001
2.184989e+003,3.764994e+001
2.186917e+003,3.765303e+001
2.188846e+003,3.764676e+001
2.190774e+003,3.765964e+001
2.192703e+003,3.767216e+001
2.194631e+003,3.767060e+001
2.196560e+003,3.766260e+001
2.198488e+003,3.767100e+001
2.200417e+003,3.767421e+001
2.202345e+003,3.767042e+001
2.204274e+003,3.766985e+001
2.206202e+003,3.767841e+001
2.208131e+003,3.767339e+001
2.210059e+003,3.766023e+001
2.211988e+003,3.765417e+001
2.213916e+003,3.764773e+001
2.215845e+003,3.763545e+001
2.217773e+003,3.764137e+001
2.219702e+003,3.765020e+001
2.221630e+003,3.764777e+001
2.223559e+003,3.764342e+001
2.225487e+003,3.764793e+001
2.227416e+003,3.762943e+001
2.229344e+003,3.761055e+001
2.231273e+003,3.762154e+001
2.233201e+003,3.762762e+001
2.235130e+003,3.760126e+001
2.237058e+003,3.759134e+001
2.238987e+003,3.760732e+001
2.240915e+003,3.759672e+001
2.242844e+003,3.755695e+001
2.244772e+003,3.753981e+001
2.246701e+003,3.753773e+001
2.248629e+003,3.751093e+001
2.250558e+003,3.747696e+001
2.252486e+003,3.745998e+001
2.254415e+003,3.743545e+001
2.256343e+003,3.739458e+001
2.258272e+003,3.737797e+001
2.260200e+003,3.735223e+001
2.262129e+003,3.730328e+001
2.264057e+003,3.726972e+001
2.265986e+003,3.722803e+001
2.267914e+003,3.721709e+001
2.269843e+003,3.721408e+001
2.271771e+003,3.720759e+001
2.273700e+003,3.720589e+001
2.275628e+003,3.721127e+001
2.277557e+003,3.722879e+001
2.279485e+003,3.726060e+001
2.281414e+003,3.729970e+001
2.283342e+003,3.731901e+001
2.285271e+003,3.723352e+001
2.287199e+003,3.709212e+001
2.289128e+003,3.694962e+001
2.291056e+003,3.679407e+001
2.292985e+003,3.659782e+001
2.294913e+003,3.642833e+001
2.296842e+003,3.628648e+001
2.298770e+003,3.612067e+001
2.300699e+003,3.593168e+001
2.302627e+003,3.575618e+001
2.304556e+003,3.548742e+001
2.306484e+003,3.511094e+001
2.308413e+003,3.472246e+001
2.310341e+003,3.440081e+001
2.312270e+003,3.417313e+001
2.314198e+003,3.401659e+001
2.316127e+003,3.370285e+001
2.318055e+003,3.319641e+001
2.319984e+003,3.261182e+001
2.321912e+003,3.212172e+001
2.323841e+003,3.179090e+001
2.325769e+003,3.143549e+001
2.327698e+003,3.107520e+001
2.329626e+003,3.079849e+001
2.331555e+003,3.062818e+001
2.333483e+003,3.058271e+001
2.335412e+003,3.040276e+001
2.337340e+003,3.018154e+001
2.339269e+003,3.005476e+001
2.341197e+003,2.985805e+001
2.343126e+003,2.991392e+001
2.345054e+003,3.052210e+001
2.346983e+003,3.177128e+001
2.348911e+003,3.214185e+001
2.350840e+003,3.122434e+001
2.352768e+003,2.996866e+001
2.354697e+003,2.895005e+001
2.356625e+003,2.829505e+001
2.358554e+003,2.783846e+001
2.360482e+003,2.760005e+001
2.362411e+003,2.776433e+001
2.364339e+003,2.824160e+001
2.366268e+003,2.891381e+001
2.368196e+003,2.978061e+001
2.370125e+003,3.067317e+001
2.372053e+003,3.163725e+001
2.373982e+003,3.263424e+001
2.375910e+003,3.356278e+001
2.377839e+003,3.436352e+001
2.379767e+003,3.511768e+001
2.381696e+003,3.585073e+001
2.383624e+003,3.645209e+001
2.385553e+003,3.685130e+001
2.387481e+003,3.705608e+001
2.389410e+003,3.714890e+001
2.391338e+003,3.718376e+001
2.393267e+003,3.717739e+001
2.395195e+003,3.716472e+001
2.397124e+003,3.715277e+001
2.399052e+003,3.713729e+001
2.400981e+003,3.713330e+001
2.402909e+003,3.714113e+001
2.404838e+003,3.712543e+001
2.406766e+003,3.709149e+001
2.408695e+003,3.708080e+001
2.410623e+003,3.708401e+001
2.412552e+003,3.708041e+001
2.414480e+003,3.708112e+001
2.416409e+003,3.707973e+001
2.418337e+003,3.706620e+001
2.420266e+003,3.705432e+001
2.422194e+003,3.704305e+001
2.424123e+003,3.704330e+001
2.426051e+003,3.703259e+001
2.427980e+003,3.702129e+001
2.429908e+003,3.701955e+001
2.431837e+003,3.701120e+001
2.433765e+003,3.701200e+001
2.435694e+003,3.699463e+001
2.437622e+003,3.698423e+001
2.439551e+003,3.699945e+001
2.441479e+003,3.699889e+001
2.443408e+003,3.697820e+001
2.445336e+003,3.696229e+001
2.447265e+003,3.696191e+001
2.449193e+003,3.696864e+001
2.451122e+003,3.695851e+001
2.453050e+003,3.695370e+001
2.454979e+003,3.693919e+001
2.456907e+003,3.690757e+001
2.458836e+003,3.688452e+001
2.460764e+003,3.688148e+001
2.462693e+003,3.688211e+001
2.464621e+003,3.688242e+001
2.466550e+003,3.684470e+001
2.468478e+003,3.683434e+001
2.470406e+003,3.685188e+001
2.472335e+003,3.687070e+001
2.474264e+003,3.684158e+001
2.476192e+003,3.679801e+001
2.478121e+003,3.675674e+001
2.480049e+003,3.673833e+001
2.481978e+003,3.673700e+001
2.483906e+003,3.673301e+001
2.485834e+003,3.674569e+001
2.487763e+003,3.674446e+001
2.489692e+003,3.673156e+001
2.491620e+003,3.673701e+001
2.493549e+003,3.674643e+001
2.495477e+003,3.671943e+001
2.497406e+003,3.669502e+001
2.499334e+003,3.668570e+001
2.501262e+003,3.667914e+001
2.503191e+003,3.669131e+001
2.505120e+003,3.668739e+001
2.507048e+003,3.669155e+001
2.508977e+003,3.668755e+001
2.510905e+003,3.666750e+001
2.512833e+003,3.665089e+001
2.514762e+003,3.664190e+001
2.516690e+003,3.663336e+001
2.518619e+003,3.663486e+001
2.520548e+003,3.663236e+001
2.522476e+003,3.660511e+001
2.524405e+003,3.659127e+001
2.526333e+003,3.660183e+001
2.528261e+003,3.660093e+001
2.530190e+003,3.660135e+001
2.532119e+003,3.658941e+001
2.534047e+003,3.656093e+001
2.535976e+003,3.655299e+001
2.537904e+003,3.655090e+001
2.539833e+003,3.653854e+001
2.541761e+003,3.653211e+001
2.543689e+003,3.653383e+001
2.545618e+003,3.652785e+001
2.547547e+003,3.651187e+001
2.549475e+003,3.651083e+001
2.551404e+003,3.651537e+001
2.553332e+003,3.650734e+001
2.555260e+003,3.649153e+001
2.557189e+003,3.647456e+001
2.559117e+003,3.647332e+001
2.561046e+003,3.645853e+001
2.562975e+003,3.643332e+001
2.564903e+003,3.643455e+001
2.566832e+003,3.643604e+001
2.568760e+003,3.642352e+001
2.570688e+003,3.641110e+001
2.572617e+003,3.642971e+001
2.574545e+003,3.642002e+001
2.576474e+003,3.639899e+001
2.578403e+003,3.638830e+001
2.580331e+003,3.637601e+001
2.582260e+003,3.637748e+001
2.584188e+003,3.636446e+001
2.586116e+003,3.633473e+001
2.588045e+003,3.632166e+001
2.589973e+003,3.633644e+001
2.591902e+003,3.634850e+001
2.593831e+003,3.631683e+001
2.595759e+003,3.629948e+001
2.597688e+003,3.631086e+001
2.599616e+003,3.630408e+001
2.601544e+003,3.630804e+001
2.603473e+003,3.629911e+001
2.605401e+003,3.627733e+001
2.607330e+003,3.625805e+001
2.609259e+003,3.623373e+001
2.611187e+003,3.621651e+001
2.613115e+003,3.621638e+001
2.615044e+003,3.621597e+001
2.616972e+003,3.618393e+001
2.618901e+003,3.615739e+001
2.620830e+003,3.617889e+001
2.622758e+003,3.617544e+001
2.624687e+003,3.614366e+001
2.626615e+003,3.613679e+001
2.628543e+003,3.611738e+001
2.630472e+003,3.611176e+001
2.632400e+003,3.611470e+001
2.634329e+003,3.609536e+001
2.636258e+003,3.607175e+001
2.638186e+003,3.603935e+001
2.640115e+003,3.602679e+001
2.642043e+003,3.604510e+001
2.643971e+003,3.605174e+001
2.645900e+003,3.603505e+001
2.647828e+003,3.602100e+001
2.649757e+003,3.602399e+001
2.651686e+003,3.601873e+001
2.653614e+003,3.598695e+001
2.655542e+003,3.599022e+001
2.657471e+003,3.598521e+001
2.659399e+003,3.594329e+001
2.661328e+003,3.591353e+001
2.663256e+003,3.592239e+001
2.665185e+003,3.594196e+001
2.667114e+003,3.593353e+001
2.669042e+003,3.592467e+001
2.670970e+003,3.591696e+001
2.672899e+003,3.590598e+001
2.674827e+003,3.586777e+001
2.676756e+003,3.584978e+001
2.678684e+003,3.584351e+001
2.680613e+003,3.583537e+001
2.682542e+003,3.583680e+001
2.684470e+003,3.583816e+001
2.686398e+003,3.581174e+001
2.688327e+003,3.580181e+001
2.690255e+003,3.580067e+001
2.692184e+003,3.580307e+001
2.694112e+003,3.578703e+001
2.696041e+003,3.577330e+001
2.697969e+003,3.576538e+001
2.699898e+003,3.575023e+001
2.701826e+003,3.574819e+001
2.703755e+003,3.574908e+001
2.705683e+003,3.573390e+001
2.707612e+003,3.569196e+001
2.709540e+003,3.567400e+001
2.711469e+003,3.568563e+001
2.713397e+003,3.565467e+001
2.715326e+003,3.563941e+001
2.717254e+003,3.563804e+001
2.719183e+003,3.561317e+001
2.721111e+003,3.559530e+001
2.723040e+003,3.558448e+001
2.724969e+003,3.558900e+001
2.726897e+003,3.556052e+001
2.728825e+003,3.553372e+001
2.730754e+003,3.553706e+001
2.732682e+003,3.552909e+001
2.734611e+003,3.553674e+001
2.736539e+003,3.552517e+001
2.738468e+003,3.548782e+001
2.740396e+003,3.549183e+001
2.742325e+003,3.549189e+001
2.744253e+003,3.547374e+001
2.746182e+003,3.545022e+001
2.748110e+003,3.545168e+001
2.750039e+003,3.547679e+001
2.751967e+003,3.545501e+001
2.753896e+003,3.543948e+001
2.755824e+003,3.544929e+001
2.757753e+003,3.541786e+001
2.759681e+003,3.539277e+001
2.761610e+003,3.538339e+001
2.763538e+003,3.536538e+001
2.765467e+003,3.534460e+001
2.767395e+003,3.532261e+001
2.769324e+003,3.531489e+001
2.771252e+003,3.532448e+001
2.773181e+003,3.531758e+001
2.775109e+003,3.529764e+001
2.777038e+003,3.528823e+001
2.778966e+003,3.526656e+001
2.780895e+003,3.526064e+001
2.782823e+003,3.526474e+001
2.784752e+003,3.526801e+001
2.786680e+003,3.523684e+001
2.788609e+003,3.518653e+001
2.790537e+003,3.520239e+001
2.792466e+003,3.523441e+001
2.794394e+003,3.520304e+001
2.796323e+003,3.516488e+001
2.798251e+003,3.515747e+001
2.800180e+003,3.516165e+001
2.802108e+003,3.513977e+001
2.804037e+003,3.510632e+001
2.805965e+003,3.510147e+001
2.807894e+003,3.508365e+001
2.809822e+003,3.507076e+001
2.811751e+003,3.506997e+001
2.813679e+003,3.505818e+001
2.815608e+003,3.505922e+001
2.817536e+003,3.505430e+001
2.819465e+003,3.502514e+001
2.821393e+003,3.500169e+001
2.823322e+003,3.501094e+001
2.825250e+003,3.499117e+001
2.827179e+003,3.494932e+001
2.829107e+003,3.492791e+001
2.831036e+003,3.492987e+001
2.832964e+003,3.490868e+001
2.834893e+003,3.486874e+001
2.836821e+003,3.487200e+001
2.838750e+003,3.485789e+001
2.840678e+003,3.482770e+001
2.842607e+003,3.480931e+001
2.844535e+003,3.480553e+001
2.846464e+003,3.477920e+001
2.848392e+003,3.476266e+001
2.850321e+003,3.473835e+001
2.852249e+003,3.470599e+001
2.854178e+003,3.467979e+001
2.856106e+003,3.464281e+001
2.858035e+003,3.460316e+001
2.859963e+003,3.455781e+001
2.861892e+003,3.456826e+001
2.863820e+003,3.460509e+001
2.865749e+003,3.458389e+001
2.867677e+003,3.454066e+001
2.869606e+003,3.451726e+001
2.871534e+003,3.448889e+001
2.873463e+003,3.446616e+001
2.875391e+003,3.447701e+001
2.877320e+003,3.449071e+001
2.879248e+003,3.447750e+001
2.881177e+003,3.443380e+001
2.883105e+003,3.439487e+001
2.885034e+003,3.437947e+001
2.886962e+003,3.438242e+001
2.888891e+003,3.436536e+001
2.890819e+003,3.432952e+001
2.892748e+003,3.431028e+001
2.894676e+003,3.429374e+001
2.896605e+003,3.426785e+001
2.898533e+003,3.426170e+001
2.900462e+003,3.425570e+001
2.902390e+003,3.424171e+001
2.904319e+003,3.420043e+001
2.906247e+003,3.416691e+001
2.908176e+003,3.414755e+001
2.910104e+003,3.412976e+001
2.912033e+003,3.414135e+001
2.913961e+003,3.412260e+001
2.915890e+003,3.409738e+001
2.917818e+003,3.408455e+001
2.919747e+003,3.406743e+001
2.921675e+003,3.405854e+001
2.923604e+003,3.405371e+001
2.925532e+003,3.404311e+001
2.927461e+003,3.404729e+001
2.929389e+003,3.405459e+001
2.931318e+003,3.402715e+001
2.933246e+003,3.399197e+001
2.935175e+003,3.400235e+001
2.937103e+003,3.403675e+001
2.939032e+003,3.400820e+001
2.940960e+003,3.396447e+001
2.942889e+003,3.395528e+001
2.944817e+003,3.395001e+001
2.946746e+003,3.394318e+001
2.948674e+003,3.393240e+001
2.950603e+003,3.390312e+001
2.952531e+003,3.390347e+001
2.954460e+003,3.389783e+001
2.956388e+003,3.388899e+001
2.958317e+003,3.388462e+001
2.960245e+003,3.385682e+001
2.962174e+003,3.383559e+001
2.964102e+003,3.383152e+001
2.966031e+003,3.379782e+001
2.967959e+003,3.375388e+001
2.969888e+003,3.372936e+001
2.971816e+003,3.370587e+001
2.973745e+003,3.368811e+001
2.975673e+003,3.366555e+001
2.977602e+003,3.365328e+001
2.979530e+003,3.364700e+001
2.981459e+003,3.362244e+001
2.983387e+003,3.359898e+001
2.985316e+003,3.359977e+001
2.987244e+003,3.362722e+001
2.989173e+003,3.361067e+001
2.991101e+003,3.358186e+001
2.993030e+003,3.362907e+001
2.994958e+003,3.364887e+001
2.996887e+003,3.361637e+001
2.998815e+003,3.361381e+001
3.000744e+003,3.359062e+001
3.002672e+003,3.357877e+001
3.004601e+003,3.358930e+001
3.006529e+003,3.356745e+001
3.008458e+003,3.355678e+001
3.010386e+003,3.355126e+001
3.012315e+003,3.354227e+001
3.014243e+003,3.353535e+001
3.016172e+003,3.354002e+001
3.018100e+003,3.351443e+001
3.020029e+003,3.348470e+001
3.021957e+003,3.347602e+001
3.023886e+003,3.347052e+001
3.025814e+003,3.346970e+001
3.027743e+003,3.346581e+001
3.029671e+003,3.345814e+001
3.031600e+003,3.343367e+001
3.033528e+003,3.341425e+001
3.035457e+003,3.341891e+001
3.037385e+003,3.340159e+001
3.039314e+003,3.335036e+001
3.041242e+003,3.332506e+001
3.043171e+003,3.334707e+001
3.045099e+003,3.334924e+001
3.047028e+003,3.329677e+001
3.048956e+003,3.326020e+001
3.050885e+003,3.326187e+001
3.052813e+003,3.324243e+001
3.054742e+003,3.324887e+001
3.056670e+003,3.322640e+001
3.058599e+003,3.320814e+001
3.060527e+003,3.322263e+001
3.062456e+003,3.320789e+001
3.064384e+003,3.316348e+001
3.066313e+003,3.312368e+001
3.068241e+003,3.309274e+001
3.070170e+003,3.312109e+001
3.072098e+003,3.315462e+001
3.074027e+003,3.307845e+001
3.075955e+003,3.301068e+001
3.077884e+003,3.302325e+001
3.079812e+003,3.303289e+001
3.081741e+003,3.298679e+001
3.083669e+003,3.293665e+001
3.085598e+003,3.291718e+001
3.087526e+003,3.291891e+001
3.089455e+003,3.291050e+001
3.091383e+003,3.290275e+001
3.093312e+003,3.291475e+001
3.095240e+003,3.292731e+001
3.097169e+003,3.288221e+001
3.099097e+003,3.283815e+001
3.101026e+003,3.283837e+001
3.102954e+003,3.279015e+001
3.104883e+003,3.277473e+001
3.106811e+003,3.275467e+001
3.108740e+003,3.269720e+001
3.110668e+003,3.269804e+001
3.112597e+003,3.270045e+001
3.114525e+003,3.267629e+001
3.116454e+003,3.265578e+001
3.118382e+003,3.265737e+001
3.120311e+003,3.265453e+001
3.122239e+003,3.263562e+001
3.124167e+003,3.259580e+001
3.126096e+003,3.254835e+001
3.128025e+003,3.249250e+001
3.129953e+003,3.244440e+001
3.131882e+003,3.247006e+001
3.133810e+003,3.248385e+001
3.135739e+003,3.242062e+001
3.137667e+003,3.238098e+001
3.139595e+003,3.234840e+001
3.141524e+003,3.230748e+001
3.143453e+003,3.229743e+001
3.145381e+003,3.231810e+001
3.147310e+003,3.230848e+001
3.149238e+003,3.227649e+001
3.151167e+003,3.223133e+001
3.153095e+003,3.219146e+001
3.155023e+003,3.215067e+001
3.156952e+003,3.214327e+001
3.158881e+003,3.215139e+001
3.160809e+003,3.216535e+001
3.162738e+003,3.209600e+001
3.164666e+003,3.201778e+001
3.166594e+003,3.200459e+001
3.168523e+003,3.199999e+001
3.170452e+003,3.198520e+001
3.172380e+003,3.192536e+001
3.174309e+003,3.188824e+001
3.176237e+003,3.192002e+001
3.178166e+003,3.191457e+001
3.180094e+003,3.184998e+001
3.182022e+003,3.182598e+001
3.183951e+003,3.180235e+001
3.185880e+003,3.173900e+001
3.187808e+003,3.170879e+001
3.189737e+003,3.168833e+001
3.191665e+003,3.167743e+001
3.193594e+003,3.166966e+001
3.195522e+003,3.162246e+001
3.197450e+003,3.158279e+001
3.199379e+003,3.154846e+001
3.201308e+003,3.153353e+001
3.203236e+003,3.153376e+001
3.205165e+003,3.149680e+001
3.207093e+003,3.146403e+001
3.209021e+003,3.145548e+001
3.210950e+003,3.141191e+001
3.212878e+003,3.136432e+001
3.214807e+003,3.135028e+001
3.216736e+003,3.132749e+001
3.218664e+003,3.131085e+001
3.220593e+003,3.130161e+001
3.222521e+003,3.127789e+001
3.224449e+003,3.126228e+001
3.226378e+003,3.122701e+001
3.228306e+003,3.118344e+001
3.230235e+003,3.117349e+001
3.232164e+003,3.112017e+001
3.234092e+003,3.107663e+001
3.236021e+003,3.105816e+001
3.237949e+003,3.096384e+001
3.239877e+003,3.093178e+001
3.241806e+003,3.095149e+001
3.243734e+003,3.096962e+001
3.245663e+003,3.095801e+001
3.247592e+003,3.091193e+001
3.249520e+003,3.086692e+001
3.251448e+003,3.083248e+001
3.253377e+003,3.080092e+001
3.255305e+003,3.077707e+001
3.257234e+003,3.077594e+001
3.259162e+003,3.075214e+001
3.261091e+003,3.069269e+001
3.263020e+003,3.065419e+001
3.264948e+003,3.060685e+001
3.266876e+003,3.059426e+001
3.268805e+003,3.062596e+001
3.270733e+003,3.058880e+001
3.272662e+003,3.054125e+001
3.274591e+003,3.052878e+001
3.276519e+003,3.048907e+001
3.278448e+003,3.041941e+001
3.280376e+003,3.036010e+001
3.282304e+003,3.032324e+001
3.284233e+003,3.032072e+001
3.286161e+003,3.031016e+001
3.288090e+003,3.028850e+001
3.290019e+003,3.021101e+001
3.291947e+003,3.018049e+001
3.293875e+003,3.020480e+001
3.295804e+003,3.022087e+001
3.297732e+003,3.018369e+001
3.299661e+003,3.011217e+001
3.301589e+003,3.008274e+001
3.303518e+003,3.003075e+001
3.305447e+003,2.998488e+001
3.307375e+003,2.997501e+001
3.309303e+003,2.994641e+001
3.311232e+003,2.989863e+001
3.313160e+003,2.987152e+001
3.315089e+003,2.983234e+001
3.317017e+003,2.978979e+001
3.318946e+003,2.979296e+001
3.320875e+003,2.981944e+001
3.322803e+003,2.981577e+001
3.324731e+003,2.976111e+001
3.326660e+003,2.971731e+001
3.328588e+003,2.972455e+001
3.330517e+003,2.969054e+001
3.332445e+003,2.962754e+001
3.334374e+003,2.959572e+001
3.336302e+003,2.956564e+001
3.338231e+003,2.952470e+001
3.340159e+003,2.949641e+001
3.342088e+003,2.947225e+001
3.344016e+003,2.942671e+001
3.345945e+003,2.939977e+001
3.347873e+003,2.938214e+001
3.349802e+003,2.939208e+001
3.351730e+003,2.936919e+001
3.353659e+003,2.930771e+001
3.355587e+003,2.925288e+001
3.357516e+003,2.920394e+001
3.359444e+003,2.917577e+001
3.361373e+003,2.913897e+001
3.363302e+003,2.909923e+001
3.365230e+003,2.905417e+001
3.367158e+003,2.904887e+001
3.369087e+003,2.903645e+001
3.371015e+003,2.894809e+001
3.372944e+003,2.888799e+001
3.374872e+003,2.887516e+001
3.376801e+003,2.886899e+001
3.378729e+003,2.882986e+001
3.380658e+003,2.874881e+001
3.382586e+003,2.870159e+001
3.384515e+003,2.871158e+001
3.386443e+003,2.868339e+001
3.388372e+003,2.865258e+001
3.390300e+003,2.864502e+001
3.392229e+003,2.865432e+001
3.394157e+003,2.862539e+001
3.396086e+003,2.857262e+001
3.398014e+003,2.854167e+001
3.399943e+003,2.849820e+001
3.401871e+003,2.846241e+001
3.403800e+003,2.843531e+001
3.405728e+003,2.841942e+001
3.407657e+003,2.841318e+001
3.409585e+003,2.838972e+001
3.411514e+003,2.833269e+001
3.413442e+003,2.829470e+001
3.415371e+003,2.824376e+001
3.417299e+003,2.822418e+001
3.419228e+003,2.828202e+001
3.421156e+003,2.827126e+001
3.423085e+003,2.819015e+001
3.425013e+003,2.815862e+001
3.426942e+003,2.813351e+001
3.428870e+003,2.811371e+001
3.430799e+003,2.810502e+001
3.432727e+003,2.807958e+001
3.434656e+003,2.804867e+001
3.436584e+003,2.800618e+001
3.438513e+003,2.799257e+001
3.440441e+003,2.803383e+001
3.442370e+003,2.808387e+001
3.444298e+003,2.804603e+001
3.446227e+003,2.805103e+001
3.448155e+003,2.803874e+001
3.450084e+003,2.797793e+001
3.452012e+003,2.797225e+001
3.453941e+003,2.794578e+001
3.455869e+003,2.794959e+001
3.457798e+003,2.796064e+001
3.459726e+003,2.794362e+001
3.461655e+003,2.792991e+001
3.463583e+003,2.791842e+001
3.465512e+003,2.794350e+001
3.467440e+003,2.795797e+001
3.469369e+003,2.796432e+001
3.471297e+003,2.794983e+001
3.473226e+003,2.794137e+001
3.475154e+003,2.800038e+001
3.477083e+003,2.802202e+001
3.479011e+003,2.801195e+001
3.480940e+003,2.804434e+001
3.482868e+003,2.802298e+001
3.484797e+003,2.796585e+001
3.486725e+003,2.798879e+001
3.488654e+003,2.806348e+001
3.490582e+003,2.810336e+001
3.492511e+003,2.809953e+001
3.494439e+003,2.814234e+001
3.496368e+003,2.815326e+001
3.498296e+003,2.811715e+001
3.500225e+003,2.814045e+001
3.502153e+003,2.823675e+001
3.504082e+003,2.832015e+001
3.506010e+003,2.822330e+001
3.507939e+003,2.816442e+001
3.509867e+003,2.821952e+001
3.511796e+003,2.821355e+001
3.513724e+003,2.824028e+001
3.515653e+003,2.822186e+001
3.517581e+003,2.820805e+001
3.519510e+003,2.822827e+001
3.521438e+003,2.828065e+001
3.523367e+003,2.834957e+001
3.525295e+003,2.836634e+001
3.527224e+003,2.843979e+001
3.529152e+003,2.847353e+001
3.531081e+003,2.838017e+001
3.533009e+003,2.834391e+001
3.534938e+003,2.838904e+001
3.536866e+003,2.842817e+001
3.538795e+003,2.841404e+001
3.540723e+003,2.839768e+001
3.542652e+003,2.845241e+001
3.544580e+003,2.859662e+001
3.546509e+003,2.868861e+001
3.548437e+003,2.859625e+001
3.550366e+003,2.858013e+001
3.552294e+003,2.863178e+001
3.554223e+003,2.850297e+001
3.556151e+003,2.847336e+001
3.558080e+003,2.858932e+001
3.560008e+003,2.871618e+001
3.561937e+003,2.877397e+001
3.563865e+003,2.882409e+001
3.565794e+003,2.898186e+001
3.567722e+003,2.899399e+001
3.569651e+003,2.885112e+001
3.571579e+003,2.882738e+001
3.573508e+003,2.885003e+001
3.575436e+003,2.887686e+001
3.577365e+003,2.888042e+001
3.579293e+003,2.886841e+001
3.581222e+003,2.888601e+001
3.583150e+003,2.888891e+001
3.585079e+003,2.895161e+001
3.587007e+003,2.914016e+001
3.588936e+003,2.909267e+001
3.590864e+003,2.898176e+001
3.592793e+003,2.900162e+001
3.594721e+003,2.908627e+001
3.596650e+003,2.907459e+001
3.598578e+003,2.913974e+001
3.600507e+003,2.921278e+001
3.602435e+003,2.915234e+001
3.604364e+003,2.907146e+001
3.606292e+003,2.923197e+001
3.608221e+003,2.943757e+001
3.610149e+003,2.944280e+001
3.612078e+003,2.952052e+001
3.614006e+003,2.956095e+001
3.615935e+003,2.949231e+001
3.617863e+003,2.959810e+001
3.619792e+003,2.962194e+001
3.621720e+003,2.939404e+001
3.623649e+003,2.925875e+001
3.625577e+003,2.925734e+001
3.627506e+003,2.948630e+001
3.629434e+003,2.982780e+001
3.631363e+003,2.959598e+001
3.633291e+003,2.950865e+001
3.635220e+003,2.949577e+001
3.637148e+003,2.955256e+001
3.639077e+003,2.958982e+001
3.641005e+003,2.965379e+001
3.642934e+003,2.970621e+001
3.644862e+003,2.981792e+001
3.646791e+003,3.019084e+001
3.648719e+003,3.063147e+001
3.650648e+003,3.048887e+001
3.652576e+003,3.002690e+001
3.654505e+003,2.988645e+001
3.656433e+003,2.991631e+001
3.658362e+003,2.985210e+001
3.660290e+003,2.983680e+001
3.662219e+003,2.986462e+001
3.664147e+003,2.983654e+001
3.666076e+003,2.979315e+001
3.668004e+003,2.990224e+001
3.669933e+003,3.022175e+001
3.671861e+003,3.009284e+001
3.673790e+003,3.019761e+001
3.675718e+003,3.054066e+001
3.677647e+003,3.015919e+001
3.679575e+003,2.997608e+001
3.681504e+003,2.989336e+001
3.683432e+003,2.986190e+001
3.685361e+003,2.986996e+001
3.687289e+003,3.015416e+001
3.689218e+003,3.043879e+001
3.691146e+003,3.003386e+001
3.693075e+003,2.978924e+001
3.695003e+003,2.970662e+001
3.696932e+003,2.965826e+001
3.698860e+003,2.964075e+001
3.700789e+003,2.969004e+001
3.702717e+003,2.968078e+001
3.704646e+003,2.966106e+001
3.706574e+003,2.966587e+001
3.708503e+003,2.982028e+001
3.710431e+003,3.036259e+001
3.712360e+003,3.050223e+001
3.714288e+003,3.017934e+001
3.716217e+003,2.991453e+001
3.718145e+003,2.980448e+001
3.720074e+003,2.980112e+001
3.722002e+003,2.991438e+001
3.723931e+003,2.993342e+001
3.725859e+003,2.994087e+001
3.727788e+003,2.968415e+001
3.729716e+003,2.956532e+001
3.731645e+003,2.986934e+001
3.733573e+003,3.007964e+001
3.735502e+003,3.033893e+001
3.737430e+003,3.018650e+001
3.739359e+003,3.003862e+001
3.741287e+003,3.011397e+001
3.743216e+003,3.034159e+001
3.745144e+003,3.061425e+001
3.747073e+003,3.047011e+001
3.749001e+003,3.078629e+001
3.750930e+003,3.113356e+001
3.752858e+003,3.060302e+001
3.754787e+003,3.024864e+001
3.756715e+003,3.022128e+001
3.758644e+003,3.027673e+001
3.760572e+003,3.030202e+001
3.762500e+003,3.014090e+001
3.764429e+003,3.017868e+001
3.766358e+003,3.022464e+001
3.768286e+003,3.016530e+001
3.770215e+003,3.023520e+001
3.772143e+003,3.014076e+001
3.774072e+003,3.005840e+001
3.776000e+003,3.005078e+001
3.777928e+003,3.009641e+001
3.779857e+003,3.010309e+001
3.781786e+003,3.000899e+001
3.783714e+003,3.010160e+001
3.785643e+003,3.007593e+001
3.787571e+003,2.997772e+001
3.789500e+003,2.998218e+001
3.791428e+003,2.999670e+001
3.793356e+003,2.994995e+001
3.795285e+003,3.010240e+001
3.797214e+003,3.027075e+001
3.799142e+003,3.021741e+001
3.801071e+003,3.033410e+001
3.802999e+003,3.010626e+001
3.804927e+003,2.999959e+001
3.806856e+003,3.014055e+001
3.808785e+003,2.995667e+001
3.810713e+003,2.984858e+001
3.812642e+003,2.988208e+001
3.814570e+003,2.999757e+001
3.816499e+003,3.014387e+001
3.818427e+003,3.007493e+001
3.820355e+003,3.018742e+001
3.822284e+003,3.018552e+001
3.824213e+003,3.002218e+001
3.826141e+003,3.002389e+001
3.828070e+003,2.995215e+001
3.829998e+003,2.994188e+001
3.831927e+003,3.005106e+001
3.833855e+003,3.005565e+001
3.835783e+003,3.011732e+001
3.837712e+003,3.031578e+001
3.839641e+003,3.035248e+001
3.841569e+003,3.006026e+001
3.843498e+003,2.993658e+001
3.845426e+003,2.983156e+001
3.847354e+003,2.977220e+001
3.849283e+003,2.982564e+001
3.851211e+003,3.007321e+001
3.853140e+003,3.064326e+001
3.855069e+003,3.014878e+001
3.856997e+003,2.996903e+001
3.858926e+003,2.988202e+001
3.860854e+003,2.980240e+001
3.862782e+003,2.987725e+001
3.864711e+003,3.006277e+001
3.866639e+003,2.988492e+001
3.868568e+003,2.992901e+001
3.870497e+003,3.007899e+001
3.872425e+003,2.993640e+001
3.874354e+003,2.989322e+001
3.876282e+003,2.965182e+001
3.878210e+003,2.961433e+001
3.880139e+003,2.985125e+001
3.882067e+003,2.984136e+001
3.883996e+003,2.979654e+001
3.885925e+003,2.986160e+001
3.887853e+003,2.971383e+001
3.889781e+003,2.974867e+001
3.891710e+003,2.990137e+001
3.893638e+003,2.974796e+001
3.895567e+003,2.962898e+001
3.897495e+003,2.968027e+001
3.899424e+003,2.979069e+001
3.901353e+003,2.982821e+001
3.903281e+003,2.991114e+001
3.905209e+003,2.976235e+001
3.907138e+003,2.964269e+001
3.909066e+003,2.952297e+001
3.910995e+003,2.942526e+001
3.912924e+003,2.943958e+001
3.914852e+003,2.951413e+001
3.916781e+003,2.957136e+001
3.918709e+003,2.957505e+001
3.920637e+003,2.954773e+001
3.922566e+003,2.954566e+001
3.924494e+003,2.958934e+001
3.926423e+003,2.944205e+001
3.928352e+003,2.942087e+001
3.930280e+003,2.949780e+001
3.932208e+003,2.953232e+001
3.934137e+003,2.945097e+001
3.936065e+003,2.934944e+001
3.937994e+003,2.937147e+001
3.939922e+003,2.942108e+001
3.941851e+003,2.949391e+001
3.943780e+003,2.947627e+001
3.945708e+003,2.935424e+001
3.947636e+003,2.933581e+001
3.949565e+003,2.942786e+001
3.951493e+003,2.948078e+001
3.953422e+003,2.945496e+001
3.955350e+003,2.938927e+001
3.957279e+003,2.930643e+001
3.959208e+003,2.928333e+001
3.961136e+003,2.930776e+001
3.963064e+003,2.930734e+001
3.964993e+003,2.930328e+001
3.966921e+003,2.930695e+001
3.968850e+003,2.926960e+001
3.970778e+003,2.929556e+001
3.972707e+003,2.931429e+001
3.974635e+003,2.927157e+001
3.976564e+003,2.927126e+001
3.978492e+003,2.926770e+001
3.980421e+003,2.924982e+001
3.982349e+003,2.922231e+001
3.984278e+003,2.924731e+001
3.986206e+003,2.924393e+001
3.988135e+003,2.923483e+001
3.990063e+003,2.920723e+001
3.991992e+003,2.920332e+001
3.993920e+003,2.921429e+001
3.995849e+003,2.918418e+001
3.997777e+003,2.914162e+001
3.999706e+003,2.911248e+001
