3.991992e+002,4.477866e+001
4.011277e+002,4.165350e+001
4.030562e+002,3.961191e+001
4.049847e+002,3.829705e+001
4.069132e+002,3.735925e+001
4.088417e+002,3.587427e+001
4.107702e+002,3.414334e+001
4.126987e+002,3.236451e+001
4.146272e+002,3.092840e+001
4.165557e+002,2.963766e+001
4.184842e+002,2.866404e+001
4.204127e+002,2.664068e+001
4.223412e+002,2.591929e+001
4.242697e+002,2.564050e+001
4.261982e+002,2.487188e+001
4.281267e+002,2.389352e+001
4.300552e+002,2.297938e+001
4.319837e+002,2.163345e+001
4.339122e+002,2.069201e+001
4.358407e+002,1.987016e+001
4.377692e+002,1.902987e+001
4.396977e+002,1.828942e+001
4.416262e+002,1.819585e+001
4.435547e+002,1.833589e+001
4.454832e+002,1.799500e+001
4.474117e+002,1.786775e+001
4.493401e+002,1.782099e+001
4.512686e+002,1.748684e+001
4.531971e+002,1.664877e+001
4.551256e+002,1.590659e+001
4.570541e+002,1.577717e+001
4.589826e+002,1.535437e+001
4.609111e+002,1.501926e+001
4.628396e+002,1.495733e+001
4.647681e+002,1.513150e+001
4.666966e+002,1.529082e+001
4.686251e+002,1.535552e+001
4.705536e+002,1.536470e+001
4.724821e+002,1.519492e+001
4.744106e+002,1.468195e+001
4.763391e+002,1.443658e+001
4.782676e+002,1.435039e+001
4.801961e+002,1.464106e+001
4.821246e+002,1.509038e+001
4.840531e+002,1.594262e+001
4.859816e+002,1.684933e+001
4.879101e+002,1.799466e+001
4.898386e+002,1.931371e+001
4.917671e+002,2.086287e+001
4.936956e+002,2.246784e+001
4.956241e+002,2.402509e+001
4.975526e+002,2.566502e+001
4.994811e+002,2.767101e+001
5.014096e+002,3.000785e+001
5.033381e+002,3.200794e+001
5.052666e+002,3.296059e+001
5.071951e+002,3.336861e+001
5.091236e+002,3.304621e+001
5.110521e+002,3.247023e+001
5.129806e+002,3.195598e+001
5.149091e+002,3.223051e+001
5.168376e+002,3.345186e+001
5.187661e+002,3.541868e+001
5.206946e+002,3.775574e+001
5.226231e+002,4.028456e+001
5.245516e+002,4.304034e+001
5.264801e+002,4.596672e+001
5.284086e+002,4.809062e+001
5.303371e+002,5.032469e+001
5.322656e+002,5.298460e+001
5.341941e+002,5.592382e+001
5.361226e+002,5.874146e+001
5.380511e+002,6.107648e+001
5.399796e+002,6.261634e+001
5.419081e+002,6.292267e+001
5.438365e+002,6.202426e+001
5.457651e+002,6.019786e+001
5.476936e+002,5.725106e+001
5.496221e+002,5.455291e+001
5.515506e+002,5.333740e+001
5.534791e+002,5.457892e+001
5.554076e+002,5.782354e+001
5.573361e+002,6.160398e+001
5.592646e+002,6.506734e+001
5.611931e+002,6.836984e+001
5.631216e+002,7.168082e+001
5.650500e+002,7.478798e+001
5.669786e+002,7.788878e+001
5.689070e+002,8.094839e+001
5.708356e+002,8.344702e+001
5.727640e+002,8.510506e+001
5.746926e+002,8.581589e+001
5.766210e+002,8.585246e+001
5.785496e+002,8.589588e+001
5.804780e+002,8.639073e+001
5.824066e+002,8.676021e+001
5.843350e+002,8.817849e+001
5.862635e+002,9.096130e+001
5.881920e+002,9.379237e+001
5.901205e+002,9.616573e+001
5.920490e+002,9.781622e+001
5.939775e+002,9.826816e+001
5.959060e+002,9.806763e+001
5.978345e+002,9.740777e+001
5.997631e+002,9.623171e+001
6.016915e+002,9.442728e+001
6.036201e+002,9.278335e+001
6.055485e+002,9.206950e+001
6.074771e+002,9.168761e+001
6.094055e+002,9.084711e+001
6.113340e+002,8.920370e+001
6.132625e+002,8.694897e+001
6.151910e+002,8.380505e+001
6.171195e+002,7.942444e+001
6.190480e+002,7.537526e+001
6.209765e+002,7.142982e+001
6.229050e+002,6.767021e+001
6.248335e+002,6.568979e+001
6.267620e+002,6.502304e+001
6.286905e+002,6.469008e+001
6.306190e+002,6.384468e+001
6.325475e+002,6.235059e+001
6.344760e+002,6.028542e+001
6.364045e+002,5.780286e+001
6.383330e+002,5.514325e+001
6.402615e+002,5.292527e+001
6.421900e+002,5.119447e+001
6.441185e+002,4.995577e+001
6.460470e+002,4.868373e+001
6.479755e+002,4.746568e+001
6.499040e+002,4.677434e+001
6.518325e+002,4.663856e+001
6.537610e+002,4.639713e+001
6.556895e+002,4.582595e+001
6.576180e+002,4.489498e+001
6.595465e+002,4.398436e+001
6.614750e+002,4.282576e+001
6.634035e+002,4.154881e+001
6.653320e+002,3.999146e+001
6.672605e+002,3.636914e+001
6.691890e+002,3.307633e+001
6.711175e+002,3.409689e+001
6.730460e+002,3.351007e+001
6.749745e+002,3.213512e+001
6.769030e+002,3.082183e+001
6.788315e+002,2.988601e+001
6.807599e+002,2.922027e+001
6.826885e+002,2.884678e+001
6.846169e+002,2.841034e+001
6.865455e+002,2.794323e+001
6.884739e+002,2.741304e+001
6.904025e+002,2.713233e+001
6.923309e+002,2.714024e+001
6.942595e+002,2.739854e+001
6.961880e+002,2.739383e+001
6.981165e+002,2.714933e+001
7.000450e+002,2.663609e+001
7.019734e+002,2.610914e+001
7.039020e+002,2.552276e+001
7.058304e+002,2.512106e+001
7.077590e+002,2.502200e+001
7.096874e+002,2.529169e+001
7.116160e+002,2.553049e+001
7.135444e+002,2.574002e+001
7.154730e+002,2.603485e+001
7.174014e+002,2.668818e+001
7.193300e+002,2.757772e+001
7.212584e+002,2.920328e+001
7.231870e+002,3.118830e+001
7.251154e+002,3.321198e+001
7.270439e+002,3.547192e+001
7.289724e+002,3.817145e+001
7.309009e+002,4.135373e+001
7.328294e+002,4.476118e+001
7.347579e+002,4.814029e+001
7.366864e+002,5.136467e+001
7.386149e+002,5.455389e+001
7.405434e+002,5.775810e+001
7.424719e+002,6.064416e+001
7.444004e+002,6.286458e+001
7.463289e+002,6.482534e+001
7.482574e+002,6.744117e+001
7.501859e+002,7.110414e+001
7.521144e+002,7.527550e+001
7.540429e+002,7.939590e+001
7.559714e+002,8.303104e+001
7.578999e+002,8.625131e+001
7.598284e+002,8.904296e+001
7.617569e+002,9.153695e+001
7.636854e+002,9.359225e+001
7.656139e+002,9.546094e+001
7.675424e+002,9.705132e+001
7.694709e+002,9.829629e+001
7.713994e+002,9.908672e+001
7.733279e+002,9.963082e+001
7.752564e+002,9.991601e+001
7.771849e+002,1.000000e+002
7.791134e+002,9.967567e+001
7.810419e+002,9.914894e+001
7.829704e+002,9.847702e+001
7.848989e+002,9.775012e+001
7.868274e+002,9.669238e+001
7.887559e+002,9.550914e+001
7.906844e+002,9.413086e+001
7.926129e+002,9.263538e+001
7.945414e+002,9.102009e+001
7.964699e+002,8.934368e+001
7.983984e+002,8.745976e+001
8.003269e+002,8.548957e+001
8.022554e+002,8.348443e+001
8.041839e+002,8.143914e+001
8.061124e+002,7.931425e+001
8.080409e+002,7.714401e+001
8.099694e+002,7.485564e+001
8.118979e+002,7.260167e+001
8.138264e+002,7.035754e+001
8.157549e+002,6.805815e+001
8.176833e+002,6.572701e+001
8.196119e+002,6.346389e+001
8.215403e+002,6.126958e+001
8.234689e+002,5.911961e+001
8.253973e+002,5.695989e+001
8.273259e+002,5.488215e+001
8.292543e+002,5.293126e+001
8.311829e+002,5.107146e+001
8.331113e+002,4.923065e+001
8.350399e+002,4.745981e+001
8.369683e+002,4.579242e+001
8.388969e+002,4.424479e+001
8.408253e+002,4.279854e+001
8.427538e+002,4.141212e+001
8.446824e+002,4.009692e+001
8.466108e+002,3.883685e+001
8.485394e+002,3.766918e+001
8.504678e+002,3.657153e+001
8.523964e+002,3.548747e+001
8.543248e+002,3.445868e+001
8.562534e+002,3.351737e+001
8.581818e+002,3.256557e+001
8.601104e+002,3.162891e+001
8.620388e+002,3.072657e+001
8.639673e+002,2.993217e+001
8.658958e+002,2.917599e+001
8.678243e+002,2.845055e+001
8.697528e+002,2.773774e+001
8.716813e+002,2.706334e+001
8.736098e+002,2.640252e+001
8.755383e+002,2.582662e+001
8.774668e+002,2.524248e+001
8.793953e+002,2.465500e+001
8.813238e+002,2.405707e+001
8.832523e+002,2.348703e+001
8.851808e+002,2.295967e+001
8.871093e+002,2.247681e+001
8.890378e+002,2.198771e+001
8.909663e+002,2.153737e+001
8.928948e+002,2.106887e+001
8.948233e+002,2.066525e+001
8.967518e+002,2.021773e+001
8.986803e+002,1.977412e+001
9.006088e+002,1.934157e+001
9.025373e+002,1.892415e+001
9.044658e+002,1.849863e+001
9.063943e+002,1.807625e+001
9.083228e+002,1.760189e+001
9.102513e+002,1.717518e+001
9.121798e+002,1.674261e+001
9.141083e+002,1.634100e+001
9.160368e+002,1.589499e+001
9.179653e+002,1.549691e+001
9.198938e+002,1.507339e+001
9.218223e+002,1.467683e+001
9.237508e+002,1.431898e+001
9.256793e+002,1.397848e+001
9.276078e+002,1.361730e+001
9.295363e+002,1.330281e+001
9.314648e+002,1.296994e+001
9.333932e+002,1.269228e+001
9.353218e+002,1.242246e+001
9.372502e+002,1.221371e+001
9.391788e+002,1.200666e+001
9.411072e+002,1.184179e+001
9.430358e+002,1.168150e+001
9.449643e+002,1.160153e+001
9.468928e+002,1.148011e+001
9.488213e+002,1.138751e+001
9.507498e+002,1.130459e+001
9.526783e+002,1.119876e+001
9.546068e+002,1.104389e+001
9.565353e+002,1.097118e+001
9.584637e+002,1.086787e+001
9.603923e+002,1.077589e+001
9.623207e+002,1.069960e+001
9.642493e+002,1.063978e+001
9.661777e+002,1.053121e+001
9.681063e+002,1.041685e+001
9.700347e+002,1.029887e+001
9.719633e+002,1.025167e+001
9.738917e+002,1.022031e+001
9.758203e+002,1.027247e+001
9.777487e+002,1.027571e+001
9.796772e+002,1.025463e+001
9.816057e+002,1.018184e+001
9.835342e+002,1.007751e+001
9.854627e+002,1.000000e+001
9.873912e+002,1.002527e+001
9.893197e+002,1.007781e+001
9.912482e+002,1.019207e+001
9.931768e+002,1.027729e+001
9.951052e+002,1.040469e+001
9.970338e+002,1.052924e+001
9.989622e+002,1.066583e+001
1.000891e+003,1.075115e+001
1.002819e+003,1.087789e+001
1.004748e+003,1.097256e+001
1.006676e+003,1.107657e+001
1.008605e+003,1.116072e+001
1.010533e+003,1.124330e+001
1.012462e+003,1.130497e+001
1.014390e+003,1.142065e+001
1.016319e+003,1.148538e+001
1.018247e+003,1.156391e+001
1.020176e+003,1.165479e+001
1.022104e+003,1.179533e+001
1.024033e+003,1.198070e+001
1.025961e+003,1.222165e+001
1.027890e+003,1.239819e+001
1.029818e+003,1.259040e+001
1.031747e+003,1.274785e+001
1.033675e+003,1.293695e+001
1.035604e+003,1.308715e+001
1.037532e+003,1.319713e+001
1.039461e+003,1.328889e+001
1.041389e+003,1.348449e+001
1.043318e+003,1.370107e+001
1.045246e+003,1.392313e+001
1.047175e+003,1.408025e+001
1.049103e+003,1.424466e+001
1.051032e+003,1.431520e+001
1.052960e+003,1.435483e+001
1.054889e+003,1.441850e+001
1.056817e+003,1.456783e+001
1.058746e+003,1.474876e+001
1.060674e+003,1.495296e+001
1.062603e+003,1.511345e+001
1.064531e+003,1.532593e+001
1.066460e+003,1.554197e+001
1.068388e+003,1.581181e+001
1.070317e+003,1.606834e+001
1.072245e+003,1.633820e+001
1.074174e+003,1.655864e+001
1.076102e+003,1.682292e+001
1.078031e+003,1.706602e+001
1.079959e+003,1.732163e+001
1.081888e+003,1.756049e+001
1.083816e+003,1.781822e+001
1.085745e+003,1.806455e+001
1.087673e+003,1.835222e+001
1.089602e+003,1.864714e+001
1.091530e+003,1.897850e+001
1.093459e+003,1.925298e+001
1.095387e+003,1.955405e+001
1.097316e+003,1.982858e+001
1.099244e+003,2.009901e+001
1.101173e+003,2.032184e+001
1.103101e+003,2.051810e+001
1.105030e+003,2.061388e+001
1.106958e+003,2.064089e+001
1.108887e+003,2.062803e+001
1.110815e+003,2.069197e+001
1.112744e+003,2.076784e+001
1.114672e+003,2.090648e+001
1.116601e+003,2.110215e+001
1.118529e+003,2.136748e+001
1.120458e+003,2.162581e+001
1.122386e+003,2.194874e+001
1.124315e+003,2.226495e+001
1.126243e+003,2.262183e+001
1.128172e+003,2.295421e+001
1.130100e+003,2.330604e+001
1.132029e+003,2.364019e+001
1.133957e+003,2.398786e+001
1.135886e+003,2.429398e+001
1.137814e+003,2.460657e+001
1.139743e+003,2.491696e+001
1.141671e+003,2.525870e+001
1.143600e+003,2.556403e+001
1.145528e+003,2.584468e+001
1.147457e+003,2.608794e+001
1.149385e+003,2.636273e+001
1.151314e+003,2.664840e+001
1.153242e+003,2.693356e+001
1.155171e+003,2.719483e+001
1.157099e+003,2.749313e+001
1.159028e+003,2.775668e+001
1.160956e+003,2.801746e+001
1.162885e+003,2.827044e+001
1.164813e+003,2.852430e+001
1.166742e+003,2.877962e+001
1.168670e+003,2.908023e+001
1.170599e+003,2.933644e+001
1.172527e+003,2.959488e+001
1.174456e+003,2.987150e+001
1.176384e+003,3.013875e+001
1.178313e+003,3.039090e+001
1.180241e+003,3.066448e+001
1.182170e+003,3.089723e+001
1.184098e+003,3.113637e+001
1.186027e+003,3.138864e+001
1.187955e+003,3.165312e+001
1.189884e+003,3.188507e+001
1.191812e+003,3.212251e+001
1.193741e+003,3.235663e+001
1.195669e+003,3.260543e+001
1.197598e+003,3.283087e+001
1.199526e+003,3.306456e+001
1.201455e+003,3.328647e+001
1.203383e+003,3.351866e+001
1.205312e+003,3.376085e+001
1.207240e+003,3.399313e+001
1.209169e+003,3.417089e+001
1.211097e+003,3.439945e+001
1.213026e+003,3.462900e+001
1.214954e+003,3.484843e+001
1.216883e+003,3.504581e+001
1.218811e+003,3.523375e+001
1.220740e+003,3.543137e+001
1.222668e+003,3.567413e+001
1.224597e+003,3.589696e+001
1.226525e+003,3.606921e+001
1.228453e+003,3.622437e+001
1.230382e+003,3.643458e+001
1.232311e+003,3.664806e+001
1.234239e+003,3.684334e+001
1.236167e+003,3.702418e+001
1.238096e+003,3.723536e+001
1.240025e+003,3.741016e+001
1.241953e+003,3.757965e+001
1.243882e+003,3.776245e+001
1.245810e+003,3.793423e+001
1.247739e+003,3.811082e+001
1.249667e+003,3.830709e+001
1.251596e+003,3.850423e+001
1.253524e+003,3.867981e+001
1.255453e+003,3.883803e+001
1.257381e+003,3.900909e+001
1.259310e+003,3.922702e+001
1.261238e+003,3.942625e+001
1.263167e+003,3.953841e+001
1.265095e+003,3.970265e+001
1.267024e+003,3.989453e+001
1.268952e+003,4.009020e+001
1.270880e+003,4.030742e+001
1.272809e+003,4.045844e+001
1.274738e+003,4.054503e+001
1.276666e+003,4.071668e+001
1.278594e+003,4.090354e+001
1.280523e+003,4.105060e+001
1.282452e+003,4.115907e+001
1.284380e+003,4.132026e+001
1.286308e+003,4.154478e+001
1.288237e+003,4.176329e+001
1.290166e+003,4.187143e+001
1.292094e+003,4.196599e+001
1.294022e+003,4.209151e+001
1.295951e+003,4.228794e+001
1.297880e+003,4.244794e+001
1.299808e+003,4.255311e+001
1.301736e+003,4.264261e+001
1.303665e+003,4.278679e+001
1.305594e+003,4.294635e+001
1.307522e+003,4.311953e+001
1.309450e+003,4.323252e+001
1.311379e+003,4.338815e+001
1.313307e+003,4.363868e+001
1.315236e+003,4.375981e+001
1.317164e+003,4.391201e+001
1.319093e+003,4.409878e+001
1.321021e+003,4.410113e+001
1.322950e+003,4.413005e+001
1.324878e+003,4.424825e+001
1.326807e+003,4.435282e+001
1.328735e+003,4.445455e+001
1.330664e+003,4.457323e+001
1.332592e+003,4.469191e+001
1.334521e+003,4.481019e+001
1.336449e+003,4.503505e+001
1.338378e+003,4.551008e+001
1.340307e+003,4.578285e+001
1.342235e+003,4.548151e+001
1.344163e+003,4.537394e+001
1.346092e+003,4.543829e+001
1.348021e+003,4.556099e+001
1.349949e+003,4.570481e+001
1.351877e+003,4.575642e+001
1.353806e+003,4.588876e+001
1.355734e+003,4.597419e+001
1.357663e+003,4.598021e+001
1.359591e+003,4.612455e+001
1.361520e+003,4.657840e+001
1.363448e+003,4.683668e+001
1.365377e+003,4.644615e+001
1.367305e+003,4.639444e+001
1.369234e+003,4.657593e+001
1.371162e+003,4.655723e+001
1.373091e+003,4.684899e+001
1.375019e+003,4.716800e+001
1.376948e+003,4.688316e+001
1.378876e+003,4.683688e+001
1.380805e+003,4.680535e+001
1.382733e+003,4.674846e+001
1.384662e+003,4.679696e+001
1.386590e+003,4.730357e+001
1.388519e+003,4.753549e+001
1.390447e+003,4.723753e+001
1.392376e+003,4.718442e+001
1.394304e+003,4.773901e+001
1.396233e+003,4.813076e+001
1.398161e+003,4.809417e+001
1.400090e+003,4.801951e+001
1.402018e+003,4.757594e+001
1.403947e+003,4.775899e+001
1.405875e+003,4.802383e+001
1.407804e+003,4.787066e+001
1.409732e+003,4.790909e+001
1.411661e+003,4.806340e+001
1.413589e+003,4.805856e+001
1.415518e+003,4.827303e+001
1.417446e+003,4.884251e+001
1.419375e+003,4.948683e+001
1.421303e+003,4.898808e+001
1.423232e+003,4.890216e+001
1.425160e+003,4.900703e+001
1.427089e+003,4.878227e+001
1.429017e+003,4.908195e+001
1.430946e+003,4.927674e+001
1.432874e+003,4.920297e+001
1.434803e+003,4.935002e+001
1.436731e+003,5.013094e+001
1.438660e+003,4.976623e+001
1.440588e+003,4.931853e+001
1.442517e+003,4.936357e+001
1.444445e+003,4.948149e+001
1.446374e+003,4.978487e+001
1.448302e+003,5.017019e+001
1.450231e+003,4.998714e+001
1.452159e+003,5.005481e+001
1.454088e+003,5.030725e+001
1.456016e+003,5.133886e+001
1.457945e+003,5.275327e+001
1.459873e+003,5.129649e+001
1.461802e+003,5.044925e+001
1.463730e+003,5.065797e+001
1.465659e+003,5.110421e+001
1.467587e+003,5.066170e+001
1.469516e+003,5.052694e+001
1.471444e+003,5.140999e+001
1.473373e+003,5.265343e+001
1.475301e+003,5.190024e+001
1.477230e+003,5.136543e+001
1.479158e+003,5.100511e+001
1.481087e+003,5.117313e+001
1.483015e+003,5.116240e+001
1.484944e+003,5.113921e+001
1.486872e+003,5.174726e+001
1.488801e+003,5.275497e+001
1.490729e+003,5.291849e+001
1.492658e+003,5.189240e+001
1.494586e+003,5.165138e+001
1.496515e+003,5.263839e+001
1.498443e+003,5.294649e+001
1.500372e+003,5.255028e+001
1.502300e+003,5.219912e+001
1.504229e+003,5.215952e+001
1.506157e+003,5.418063e+001
1.508086e+003,5.603288e+001
1.510014e+003,5.403465e+001
1.511943e+003,5.318305e+001
1.513871e+003,5.289453e+001
1.515800e+003,5.350757e+001
1.517728e+003,5.425227e+001
1.519657e+003,5.398310e+001
1.521585e+003,5.541882e+001
1.523514e+003,5.485184e+001
1.525442e+003,5.446391e+001
1.527371e+003,5.432541e+001
1.529299e+003,5.369748e+001
1.531228e+003,5.345482e+001
1.533156e+003,5.449580e+001
1.535085e+003,5.449956e+001
1.537013e+003,5.380342e+001
1.538942e+003,5.494594e+001
1.540870e+003,5.791698e+001
1.542799e+003,5.663356e+001
1.544727e+003,5.569453e+001
1.546656e+003,5.445974e+001
1.548584e+003,5.408058e+001
1.550513e+003,5.453576e+001
1.552441e+003,5.438012e+001
1.554370e+003,5.500463e+001
1.556298e+003,5.522122e+001
1.558227e+003,5.642394e+001
1.560155e+003,5.704423e+001
1.562084e+003,5.512862e+001
1.564012e+003,5.466629e+001
1.565941e+003,5.465330e+001
1.567869e+003,5.459477e+001
1.569798e+003,5.552718e+001
1.571726e+003,5.496681e+001
1.573655e+003,5.450021e+001
1.575583e+003,5.538884e+001
1.577512e+003,5.578558e+001
1.579440e+003,5.475846e+001
1.581369e+003,5.445187e+001
1.583297e+003,5.442475e+001
1.585226e+003,5.439212e+001
1.587154e+003,5.440733e+001
1.589083e+003,5.455468e+001
1.591011e+003,5.461834e+001
1.592940e+003,5.464695e+001
1.594868e+003,5.478374e+001
1.596797e+003,5.471207e+001
1.598725e+003,5.455344e+001
1.600654e+003,5.463338e+001
1.602582e+003,5.476131e+001
1.604511e+003,5.466957e+001
1.606439e+003,5.467385e+001
1.608368e+003,5.490583e+001
1.610296e+003,5.478126e+001
1.612225e+003,5.452374e+001
1.614153e+003,5.446215e+001
1.616082e+003,5.529250e+001
1.618010e+003,5.559554e+001
1.619939e+003,5.476355e+001
1.621867e+003,5.479625e+001
1.623796e+003,5.538136e+001
1.625724e+003,5.484122e+001
1.627653e+003,5.480393e+001
1.629581e+003,5.461197e+001
1.631510e+003,5.418988e+001
1.633438e+003,5.419901e+001
1.635367e+003,5.570633e+001
1.637295e+003,5.614264e+001
1.639224e+003,5.490092e+001
1.641152e+003,5.448942e+001
1.643081e+003,5.440637e+001
1.645009e+003,5.486483e+001
1.646938e+003,5.683074e+001
1.648866e+003,5.607529e+001
1.650795e+003,5.499824e+001
1.652723e+003,5.652660e+001
1.654652e+003,5.710872e+001
1.656580e+003,5.538927e+001
1.658509e+003,5.467681e+001
1.660437e+003,5.471118e+001
1.662366e+003,5.543192e+001
1.664294e+003,5.535209e+001
1.666223e+003,5.477579e+001
1.668151e+003,5.535227e+001
1.670080e+003,5.663981e+001
1.672008e+003,5.615037e+001
1.673937e+003,5.569903e+001
1.675865e+003,5.612488e+001
1.677794e+003,5.563844e+001
1.679722e+003,5.587602e+001
1.681651e+003,5.616687e+001
1.683579e+003,5.730041e+001
1.685508e+003,5.778726e+001
1.687436e+003,5.664838e+001
1.689365e+003,5.651958e+001
1.691293e+003,5.622835e+001
1.693222e+003,5.590574e+001
1.695150e+003,5.681589e+001
1.697079e+003,5.825277e+001
1.699007e+003,5.781327e+001
1.700936e+003,5.836602e+001
1.702864e+003,5.746188e+001
1.704793e+003,5.747657e+001
1.706721e+003,5.766275e+001
1.708650e+003,5.698903e+001
1.710578e+003,5.681846e+001
1.712507e+003,5.681273e+001
1.714435e+003,5.766294e+001
1.716364e+003,5.884643e+001
1.718292e+003,5.908803e+001
1.720221e+003,5.764203e+001
1.722149e+003,5.703883e+001
1.724078e+003,5.710737e+001
1.726006e+003,5.696547e+001
1.727935e+003,5.701255e+001
1.729863e+003,5.758559e+001
1.731792e+003,5.791303e+001
1.733720e+003,5.909734e+001
1.735649e+003,5.896268e+001
1.737577e+003,5.796772e+001
1.739506e+003,5.834137e+001
1.741434e+003,5.834242e+001
1.743363e+003,5.849246e+001
1.745291e+003,5.860273e+001
1.747220e+003,5.895736e+001
1.749148e+003,5.941405e+001
1.751077e+003,5.924131e+001
1.753005e+003,5.856283e+001
1.754934e+003,5.806754e+001
1.756862e+003,5.854427e+001
1.758791e+003,5.844403e+001
1.760719e+003,5.853252e+001
1.762648e+003,5.893332e+001
1.764576e+003,5.841637e+001
1.766505e+003,5.828969e+001
1.768433e+003,5.876985e+001
1.770362e+003,5.912643e+001
1.772290e+003,6.027103e+001
1.774219e+003,5.971868e+001
1.776147e+003,5.898100e+001
1.778076e+003,5.868934e+001
1.780004e+003,5.900632e+001
1.781933e+003,5.905939e+001
1.783861e+003,5.886568e+001
1.785790e+003,5.894368e+001
1.787718e+003,5.875121e+001
1.789647e+003,5.892070e+001
1.791575e+003,5.987870e+001
1.793504e+003,6.013935e+001
1.795432e+003,5.961832e+001
1.797361e+003,5.938415e+001
1.799289e+003,5.952044e+001
1.801218e+003,5.986132e+001
1.803146e+003,5.950246e+001
1.805075e+003,5.921759e+001
1.807003e+003,5.923127e+001
1.808932e+003,5.947812e+001
1.810860e+003,5.978577e+001
1.812789e+003,5.965125e+001
1.814717e+003,5.929931e+001
1.816646e+003,5.940161e+001
1.818574e+003,5.944989e+001
1.820503e+003,5.944928e+001
1.822431e+003,5.948971e+001
1.824360e+003,5.991633e+001
1.826288e+003,6.010658e+001
1.828217e+003,6.011986e+001
1.830145e+003,6.074245e+001
1.832074e+003,6.018446e+001
1.834002e+003,5.976339e+001
1.835931e+003,5.989896e+001
1.837859e+003,6.002001e+001
1.839788e+003,5.987337e+001
1.841716e+003,5.989059e+001
1.843645e+003,6.070802e+001
1.845573e+003,6.101297e+001
1.847502e+003,6.051762e+001
1.849430e+003,6.019781e+001
1.851359e+003,5.997612e+001
1.853287e+003,6.001049e+001
1.855216e+003,6.005275e+001
1.857144e+003,6.012799e+001
1.859073e+003,6.017604e+001
1.861001e+003,6.019543e+001
1.862930e+003,6.020249e+001
1.864858e+003,6.029049e+001
1.866786e+003,6.074121e+001
1.868715e+003,6.145502e+001
1.870644e+003,6.103139e+001
1.872572e+003,6.041115e+001
1.874500e+003,6.028687e+001
1.876429e+003,6.028753e+001
1.878358e+003,6.031031e+001
1.880286e+003,6.032330e+001
1.882215e+003,6.034704e+001
1.884143e+003,6.043544e+001
1.886072e+003,6.040351e+001
1.888000e+003,6.046462e+001
1.889929e+003,6.087201e+001
1.891857e+003,6.063398e+001
1.893786e+003,6.054598e+001
1.895714e+003,6.068837e+001
1.897643e+003,6.051427e+001
1.899571e+003,6.040279e+001
1.901500e+003,6.042875e+001
1.903428e+003,6.044973e+001
1.905357e+003,6.042228e+001
1.907285e+003,6.052987e+001
1.909214e+003,6.077603e+001
1.911142e+003,6.066471e+001
1.913071e+003,6.040957e+001
1.914999e+003,6.032970e+001
1.916927e+003,6.057012e+001
1.918856e+003,6.082535e+001
1.920785e+003,6.059758e+001
1.922713e+003,6.083434e+001
1.924641e+003,6.064895e+001
1.926570e+003,6.037448e+001
1.928499e+003,6.036188e+001
1.930427e+003,6.035488e+001
1.932355e+003,6.036160e+001
1.934284e+003,6.037499e+001
1.936213e+003,6.037500e+001
1.938141e+003,6.039877e+001
1.940069e+003,6.042709e+001
1.941998e+003,6.082180e+001
1.943927e+003,6.093970e+001
1.945855e+003,6.070773e+001
1.947783e+003,6.058576e+001
1.949712e+003,6.048100e+001
1.951641e+003,6.048300e+001
1.953569e+003,6.053251e+001
1.955497e+003,6.061890e+001
1.957426e+003,6.057301e+001
1.959354e+003,6.055269e+001
1.961283e+003,6.058772e+001
1.963211e+003,6.059989e+001
1.965140e+003,6.068201e+001
1.967068e+003,6.096802e+001
1.968997e+003,6.082784e+001
1.970925e+003,6.064491e+001
1.972854e+003,6.066549e+001
1.974782e+003,6.070225e+001
1.976711e+003,6.069902e+001
1.978639e+003,6.068580e+001
1.980568e+003,6.069165e+001
1.982496e+003,6.072090e+001
1.984425e+003,6.074490e+001
1.986354e+003,6.079866e+001
1.988282e+003,6.088184e+001
1.990210e+003,6.092640e+001
1.992139e+003,6.116169e+001
1.994068e+003,6.105237e+001
1.995996e+003,6.083410e+001
1.997924e+003,6.084582e+001
1.999853e+003,6.085505e+001
2.001781e+003,6.086255e+001
2.003710e+003,6.085507e+001
2.005638e+003,6.086602e+001
2.007567e+003,6.087958e+001
2.009495e+003,6.088347e+001
2.011424e+003,6.085202e+001
2.013352e+003,6.084747e+001
2.015281e+003,6.090553e+001
2.017209e+003,6.108649e+001
2.019138e+003,6.101691e+001
2.021066e+003,6.090929e+001
2.022995e+003,6.088738e+001
2.024923e+003,6.087493e+001
2.026852e+003,6.087968e+001
2.028780e+003,6.089993e+001
2.030709e+003,6.086673e+001
2.032637e+003,6.086097e+001
2.034566e+003,6.088023e+001
2.036494e+003,6.092366e+001
2.038423e+003,6.092387e+001
2.040351e+003,6.099607e+001
2.042280e+003,6.102810e+001
2.044208e+003,6.096477e+001
2.046137e+003,6.093052e+001
2.048065e+003,6.094810e+001
2.049994e+003,6.097249e+001
2.051922e+003,6.099496e+001
2.053851e+003,6.100429e+001
2.055779e+003,6.102251e+001
2.057708e+003,6.104131e+001
2.059636e+003,6.106586e+001
2.061565e+003,6.105613e+001
2.063493e+003,6.110693e+001
2.065422e+003,6.120148e+001
2.067350e+003,6.115599e+001
2.069279e+003,6.110024e+001
2.071207e+003,6.109605e+001
2.073136e+003,6.112792e+001
2.075064e+003,6.116926e+001
2.076993e+003,6.117717e+001
2.078921e+003,6.118998e+001
2.080850e+003,6.117102e+001
2.082778e+003,6.120761e+001
2.084707e+003,6.125249e+001
2.086635e+003,6.126858e+001
2.088564e+003,6.128839e+001
2.090492e+003,6.131887e+001
2.092421e+003,6.129595e+001
2.094349e+003,6.131068e+001
2.096278e+003,6.132172e+001
2.098206e+003,6.131651e+001
2.100135e+003,6.133432e+001
2.102063e+003,6.135618e+001
2.103992e+003,6.136931e+001
2.105920e+003,6.138951e+001
2.107849e+003,6.139439e+001
2.109777e+003,6.140849e+001
2.111706e+003,6.142948e+001
2.113634e+003,6.146684e+001
2.115563e+003,6.147878e+001
2.117491e+003,6.145920e+001
2.119420e+003,6.145011e+001
2.121348e+003,6.146622e+001
2.123277e+003,6.148447e+001
2.125205e+003,6.149089e+001
2.127134e+003,6.148534e+001
2.129062e+003,6.149903e+001
2.130991e+003,6.152394e+001
2.132919e+003,6.152723e+001
2.134848e+003,6.154366e+001
2.136776e+003,6.157348e+001
2.138705e+003,6.155806e+001
2.140633e+003,6.154190e+001
2.142562e+003,6.155114e+001
2.144490e+003,6.156783e+001
2.146419e+003,6.156173e+001
2.148347e+003,6.157957e+001
2.150276e+003,6.158659e+001
2.152204e+003,6.158785e+001
2.154133e+003,6.159192e+001
2.156061e+003,6.162043e+001
2.157990e+003,6.163618e+001
2.159918e+003,6.166781e+001
2.161847e+003,6.166443e+001
2.163775e+003,6.165126e+001
2.165704e+003,6.165569e+001
2.167632e+003,6.166159e+001
2.169561e+003,6.164882e+001
2.171489e+003,6.166995e+001
2.173418e+003,6.169355e+001
2.175346e+003,6.170568e+001
2.177275e+003,6.170515e+001
2.179203e+003,6.171947e+001
2.181132e+003,6.172815e+001
2.183060e+003,6.174373e+001
2.184989e+003,6.175584e+001
2.186917e+003,6.176851e+001
2.188846e+003,6.176101e+001
2.190774e+003,6.174429e+001
2.192703e+003,6.174174e+001
2.194631e+003,6.178585e+001
2.196560e+003,6.180103e+001
2.198488e+003,6.179832e+001
2.200417e+003,6.178718e+001
2.202345e+003,6.178420e+001
2.204274e+003,6.180637e+001
2.206202e+003,6.180545e+001
2.208131e+003,6.179405e+001
2.210059e+003,6.181581e+001
2.211988e+003,6.182870e+001
2.213916e+003,6.185942e+001
2.215845e+003,6.188313e+001
2.217773e+003,6.186778e+001
2.219702e+003,6.185706e+001
2.221630e+003,6.188083e+001
2.223559e+003,6.190828e+001
2.225487e+003,6.191879e+001
2.227416e+003,6.188641e+001
2.229344e+003,6.186456e+001
2.231273e+003,6.188081e+001
2.233201e+003,6.187463e+001
2.235130e+003,6.183496e+001
2.237058e+003,6.182824e+001
2.238987e+003,6.182940e+001
2.240915e+003,6.184049e+001
2.242844e+003,6.183043e+001
2.244772e+003,6.179823e+001
2.246701e+003,6.174071e+001
2.248629e+003,6.169898e+001
2.250558e+003,6.164696e+001
2.252486e+003,6.158556e+001
2.254415e+003,6.152270e+001
2.256343e+003,6.145944e+001
2.258272e+003,6.140177e+001
2.260200e+003,6.135719e+001
2.262129e+003,6.128821e+001
2.264057e+003,6.121158e+001
2.265986e+003,6.115648e+001
2.267914e+003,6.114120e+001
2.269843e+003,6.112595e+001
2.271771e+003,6.111587e+001
2.273700e+003,6.110143e+001
2.275628e+003,6.112814e+001
2.277557e+003,6.121265e+001
2.279485e+003,6.134382e+001
2.281414e+003,6.146205e+001
2.283342e+003,6.145634e+001
2.285271e+003,6.122789e+001
2.287199e+003,6.088372e+001
2.289128e+003,6.049870e+001
2.291056e+003,6.010057e+001
2.292985e+003,5.970160e+001
2.294913e+003,5.930849e+001
2.296842e+003,5.890919e+001
2.298770e+003,5.846006e+001
2.300699e+003,5.798101e+001
2.302627e+003,5.757188e+001
2.304556e+003,5.696367e+001
2.306484e+003,5.605949e+001
2.308413e+003,5.511308e+001
2.310341e+003,5.428926e+001
2.312270e+003,5.372220e+001
2.314198e+003,5.333525e+001
2.316127e+003,5.258979e+001
2.318055e+003,5.130780e+001
2.319984e+003,4.987311e+001
2.321912e+003,4.872365e+001
2.323841e+003,4.798830e+001
2.325769e+003,4.726480e+001
2.327698e+003,4.635667e+001
2.329626e+003,4.559682e+001
2.331555e+003,4.527798e+001
2.333483e+003,4.519855e+001
2.335412e+003,4.478473e+001
2.337340e+003,4.434832e+001
2.339269e+003,4.394703e+001
2.341197e+003,4.343328e+001
2.343126e+003,4.369318e+001
2.345054e+003,4.539698e+001
2.346983e+003,4.842825e+001
2.348911e+003,4.903528e+001
2.350840e+003,4.662061e+001
2.352768e+003,4.375263e+001
2.354697e+003,4.144001e+001
2.356625e+003,3.961918e+001
2.358554e+003,3.858461e+001
2.360482e+003,3.848634e+001
2.362411e+003,3.893472e+001
2.364339e+003,3.996695e+001
2.366268e+003,4.151624e+001
2.368196e+003,4.357788e+001
2.370125e+003,4.591206e+001
2.372053e+003,4.830727e+001
2.373982e+003,5.066874e+001
2.375910e+003,5.292441e+001
2.377839e+003,5.499365e+001
2.379767e+003,5.687098e+001
2.381696e+003,5.860343e+001
2.383624e+003,6.009451e+001
2.385553e+003,6.108484e+001
2.387481e+003,6.163748e+001
2.389410e+003,6.188097e+001
2.391338e+003,6.196440e+001
2.393267e+003,6.198664e+001
2.395195e+003,6.199516e+001
2.397124e+003,6.197536e+001
2.399052e+003,6.195994e+001
2.400981e+003,6.196097e+001
2.402909e+003,6.196201e+001
2.404838e+003,6.195410e+001
2.406766e+003,6.195736e+001
2.408695e+003,6.195251e+001
2.410623e+003,6.196400e+001
2.412552e+003,6.196422e+001
2.414480e+003,6.196972e+001
2.416409e+003,6.195034e+001
2.418337e+003,6.194884e+001
2.420266e+003,6.196196e+001
2.422194e+003,6.199179e+001
2.424123e+003,6.198529e+001
2.426051e+003,6.196868e+001
2.427980e+003,6.193068e+001
2.429908e+003,6.193055e+001
2.431837e+003,6.193819e+001
2.433765e+003,6.194186e+001
2.435694e+003,6.194025e+001
2.437622e+003,6.195457e+001
2.439551e+003,6.195288e+001
2.441479e+003,6.194439e+001
2.443408e+003,6.193865e+001
2.445336e+003,6.194817e+001
2.447265e+003,6.194259e+001
2.449193e+003,6.196105e+001
2.451122e+003,6.198468e+001
2.453050e+003,6.199356e+001
2.454979e+003,6.196028e+001
2.456907e+003,6.192329e+001
2.458836e+003,6.191413e+001
2.460764e+003,6.193382e+001
2.462693e+003,6.192730e+001
2.464621e+003,6.193069e+001
2.466550e+003,6.193275e+001
2.468478e+003,6.193607e+001
2.470406e+003,6.192847e+001
2.472335e+003,6.191558e+001
2.474264e+003,6.190445e+001
2.476192e+003,6.188987e+001
2.478121e+003,6.189422e+001
2.480049e+003,6.192833e+001
2.481978e+003,6.193058e+001
2.483906e+003,6.192701e+001
2.485834e+003,6.192549e+001
2.487763e+003,6.194215e+001
2.489692e+003,6.194633e+001
2.491620e+003,6.192873e+001
2.493549e+003,6.190881e+001
2.495477e+003,6.191642e+001
2.497406e+003,6.192593e+001
2.499334e+003,6.191988e+001
2.501262e+003,6.190658e+001
2.503191e+003,6.191087e+001
2.505120e+003,6.191706e+001
2.507048e+003,6.189853e+001
2.508977e+003,6.188332e+001
2.510905e+003,6.188620e+001
2.512833e+003,6.187794e+001
2.514762e+003,6.189679e+001
2.516690e+003,6.190747e+001
2.518619e+003,6.190695e+001
2.520548e+003,6.190912e+001
2.522476e+003,6.189709e+001
2.524405e+003,6.187954e+001
2.526333e+003,6.187119e+001
2.528261e+003,6.187725e+001
2.530190e+003,6.188671e+001
2.532119e+003,6.187452e+001
2.534047e+003,6.189796e+001
2.535976e+003,6.189729e+001
2.537904e+003,6.187016e+001
2.539833e+003,6.187468e+001
2.541761e+003,6.189372e+001
2.543689e+003,6.189923e+001
2.545618e+003,6.189056e+001
2.547547e+003,6.185308e+001
2.549475e+003,6.187688e+001
2.551404e+003,6.189991e+001
2.553332e+003,6.188347e+001
2.555260e+003,6.187413e+001
2.557189e+003,6.187070e+001
2.559117e+003,6.185744e+001
2.561046e+003,6.186024e+001
2.562975e+003,6.186147e+001
2.564903e+003,6.184587e+001
2.566832e+003,6.183817e+001
2.568760e+003,6.184000e+001
2.570688e+003,6.184108e+001
2.572617e+003,6.184148e+001
2.574545e+003,6.181407e+001
2.576474e+003,6.181998e+001
2.578403e+003,6.183157e+001
2.580331e+003,6.182193e+001
2.582260e+003,6.180088e+001
2.584188e+003,6.178508e+001
2.586116e+003,6.180354e+001
2.588045e+003,6.182624e+001
2.589973e+003,6.181441e+001
2.591902e+003,6.181179e+001
2.593831e+003,6.178758e+001
2.595759e+003,6.177603e+001
2.597688e+003,6.177923e+001
2.599616e+003,6.177052e+001
2.601544e+003,6.173831e+001
2.603473e+003,6.172116e+001
2.605401e+003,6.173834e+001
2.607330e+003,6.177956e+001
2.609259e+003,6.176643e+001
2.611187e+003,6.172972e+001
2.613115e+003,6.169354e+001
2.615044e+003,6.168972e+001
2.616972e+003,6.169449e+001
2.618901e+003,6.170673e+001
2.620830e+003,6.171972e+001
2.622758e+003,6.171360e+001
2.624687e+003,6.170760e+001
2.626615e+003,6.171563e+001
2.628543e+003,6.170309e+001
2.630472e+003,6.167284e+001
2.632400e+003,6.165820e+001
2.634329e+003,6.166945e+001
2.636258e+003,6.167103e+001
2.638186e+003,6.166305e+001
2.640115e+003,6.164498e+001
2.642043e+003,6.163807e+001
2.643971e+003,6.163054e+001
2.645900e+003,6.163416e+001
2.647828e+003,6.161904e+001
2.649757e+003,6.161393e+001
2.651686e+003,6.163615e+001
2.653614e+003,6.164218e+001
2.655542e+003,6.162169e+001
2.657471e+003,6.161530e+001
2.659399e+003,6.160063e+001
2.661328e+003,6.161303e+001
2.663256e+003,6.162348e+001
2.665185e+003,6.163216e+001
2.667114e+003,6.160160e+001
2.669042e+003,6.158339e+001
2.670970e+003,6.158794e+001
2.672899e+003,6.159708e+001
2.674827e+003,6.157172e+001
2.676756e+003,6.154858e+001
2.678684e+003,6.155495e+001
2.680613e+003,6.155382e+001
2.682542e+003,6.154377e+001
2.684470e+003,6.155806e+001
2.686398e+003,6.155992e+001
2.688327e+003,6.155321e+001
2.690255e+003,6.153185e+001
2.692184e+003,6.152243e+001
2.694112e+003,6.151726e+001
2.696041e+003,6.151021e+001
2.697969e+003,6.149529e+001
2.699898e+003,6.152310e+001
2.701826e+003,6.150402e+001
2.703755e+003,6.147702e+001
2.705683e+003,6.149923e+001
2.707612e+003,6.150599e+001
2.709540e+003,6.147691e+001
2.711469e+003,6.145617e+001
2.713397e+003,6.144295e+001
2.715326e+003,6.143998e+001
2.717254e+003,6.143437e+001
2.719183e+003,6.142746e+001
2.721111e+003,6.140013e+001
2.723040e+003,6.139333e+001
2.724969e+003,6.138822e+001
2.726897e+003,6.139999e+001
2.728825e+003,6.140242e+001
2.730754e+003,6.137296e+001
2.732682e+003,6.138147e+001
2.734611e+003,6.139796e+001
2.736539e+003,6.138129e+001
2.738468e+003,6.138535e+001
2.740396e+003,6.138601e+001
2.742325e+003,6.136938e+001
2.744253e+003,6.136424e+001
2.746182e+003,6.133863e+001
2.748110e+003,6.127955e+001
2.750039e+003,6.127382e+001
2.751967e+003,6.132616e+001
2.753896e+003,6.135213e+001
2.755824e+003,6.134666e+001
2.757753e+003,6.131664e+001
2.759681e+003,6.127658e+001
2.761610e+003,6.126186e+001
2.763538e+003,6.125947e+001
2.765467e+003,6.124596e+001
2.767395e+003,6.123293e+001
2.769324e+003,6.123730e+001
2.771252e+003,6.122858e+001
2.773181e+003,6.122599e+001
2.775109e+003,6.119939e+001
2.777038e+003,6.118340e+001
2.778966e+003,6.119418e+001
2.780895e+003,6.120383e+001
2.782823e+003,6.117358e+001
2.784752e+003,6.113841e+001
2.786680e+003,6.110442e+001
2.788609e+003,6.108276e+001
2.790537e+003,6.107414e+001
2.792466e+003,6.107432e+001
2.794394e+003,6.105410e+001
2.796323e+003,6.103777e+001
2.798251e+003,6.104982e+001
2.800180e+003,6.108545e+001
2.802108e+003,6.110648e+001
2.804037e+003,6.109384e+001
2.805965e+003,6.105747e+001
2.807894e+003,6.101931e+001
2.809822e+003,6.099639e+001
2.811751e+003,6.101507e+001
2.813679e+003,6.101189e+001
2.815608e+003,6.098400e+001
2.817536e+003,6.096475e+001
2.819465e+003,6.096591e+001
2.821393e+003,6.093206e+001
2.823322e+003,6.087959e+001
2.825250e+003,6.087516e+001
2.827179e+003,6.088189e+001
2.829107e+003,6.086593e+001
2.831036e+003,6.083505e+001
2.832964e+003,6.080507e+001
2.834893e+003,6.079898e+001
2.836821e+003,6.075964e+001
2.838750e+003,6.071718e+001
2.840678e+003,6.069772e+001
2.842607e+003,6.068052e+001
2.844535e+003,6.064954e+001
2.846464e+003,6.061643e+001
2.848392e+003,6.058915e+001
2.850321e+003,6.055884e+001
2.852249e+003,6.054513e+001
2.854178e+003,6.052330e+001
2.856106e+003,6.046758e+001
2.858035e+003,6.044950e+001
2.859963e+003,6.044876e+001
2.861892e+003,6.044759e+001
2.863820e+003,6.044286e+001
2.865749e+003,6.040724e+001
2.867677e+003,6.037431e+001
2.869606e+003,6.032475e+001
2.871534e+003,6.027676e+001
2.873463e+003,6.027009e+001
2.875391e+003,6.025511e+001
2.877320e+003,6.024755e+001
2.879248e+003,6.022822e+001
2.881177e+003,6.020301e+001
2.883105e+003,6.017828e+001
2.885034e+003,6.016434e+001
2.886962e+003,6.015042e+001
2.888891e+003,6.014292e+001
2.890819e+003,6.011963e+001
2.892748e+003,6.009306e+001
2.894676e+003,6.005142e+001
2.896605e+003,6.002042e+001
2.898533e+003,5.998452e+001
2.900462e+003,5.994534e+001
2.902390e+003,5.993301e+001
2.904319e+003,5.992323e+001
2.906247e+003,5.991682e+001
2.908176e+003,5.990769e+001
2.910104e+003,5.986330e+001
2.912033e+003,5.984075e+001
2.913961e+003,5.982216e+001
2.915890e+003,5.976503e+001
2.917818e+003,5.973231e+001
2.919747e+003,5.974000e+001
2.921675e+003,5.972760e+001
2.923604e+003,5.972739e+001
2.925532e+003,5.974545e+001
2.927461e+003,5.975319e+001
2.929389e+003,5.977847e+001
2.931318e+003,5.980189e+001
2.933246e+003,5.979990e+001
2.935175e+003,5.979278e+001
2.937103e+003,5.979529e+001
2.939032e+003,5.976177e+001
2.940960e+003,5.971674e+001
2.942889e+003,5.969329e+001
2.944817e+003,5.969828e+001
2.946746e+003,5.972372e+001
2.948674e+003,5.974858e+001
2.950603e+003,5.972816e+001
2.952531e+003,5.969948e+001
2.954460e+003,5.970148e+001
2.956388e+003,5.967940e+001
2.958317e+003,5.966243e+001
2.960245e+003,5.960371e+001
2.962174e+003,5.955789e+001
2.964102e+003,5.954578e+001
2.966031e+003,5.952924e+001
2.967959e+003,5.949918e+001
2.969888e+003,5.946902e+001
2.971816e+003,5.941985e+001
2.973745e+003,5.938978e+001
2.975673e+003,5.938253e+001
2.977602e+003,5.936471e+001
2.979530e+003,5.934417e+001
2.981459e+003,5.935272e+001
2.983387e+003,5.938759e+001
2.985316e+003,5.939269e+001
2.987244e+003,5.936998e+001
2.989173e+003,5.932526e+001
2.991101e+003,5.932358e+001
2.993030e+003,5.939075e+001
2.994958e+003,5.941760e+001
2.996887e+003,5.940678e+001
2.998815e+003,5.938131e+001
3.000744e+003,5.938220e+001
3.002672e+003,5.940361e+001
3.004601e+003,5.943034e+001
3.006529e+003,5.942505e+001
3.008458e+003,5.942171e+001
3.010386e+003,5.946161e+001
3.012315e+003,5.948605e+001
3.014243e+003,5.943211e+001
3.016172e+003,5.939708e+001
3.018100e+003,5.938280e+001
3.020029e+003,5.937168e+001
3.021957e+003,5.935743e+001
3.023886e+003,5.933900e+001
3.025814e+003,5.936705e+001
3.027743e+003,5.939272e+001
3.029671e+003,5.940850e+001
3.031600e+003,5.944793e+001
3.033528e+003,5.939924e+001
3.035457e+003,5.936078e+001
3.037385e+003,5.929307e+001
3.039314e+003,5.925227e+001
3.041242e+003,5.921885e+001
3.043171e+003,5.918159e+001
3.045099e+003,5.920417e+001
3.047028e+003,5.923062e+001
3.048956e+003,5.922008e+001
3.050885e+003,5.916550e+001
3.052813e+003,5.910966e+001
3.054742e+003,5.910695e+001
3.056670e+003,5.914769e+001
3.058599e+003,5.912304e+001
3.060527e+003,5.905475e+001
3.062456e+003,5.900439e+001
3.064384e+003,5.902266e+001
3.066313e+003,5.903895e+001
3.068241e+003,5.899458e+001
3.070170e+003,5.891909e+001
3.072098e+003,5.888241e+001
3.074027e+003,5.883719e+001
3.075955e+003,5.882624e+001
3.077884e+003,5.886426e+001
3.079812e+003,5.887046e+001
3.081741e+003,5.880680e+001
3.083669e+003,5.873499e+001
3.085598e+003,5.870230e+001
3.087526e+003,5.867120e+001
3.089455e+003,5.863790e+001
3.091383e+003,5.861225e+001
3.093312e+003,5.858650e+001
3.095240e+003,5.862515e+001
3.097169e+003,5.859124e+001
3.099097e+003,5.851715e+001
3.101026e+003,5.856865e+001
3.102954e+003,5.853516e+001
3.104883e+003,5.842682e+001
3.106811e+003,5.838557e+001
3.108740e+003,5.838565e+001
3.110668e+003,5.837457e+001
3.112597e+003,5.835109e+001
3.114525e+003,5.835128e+001
3.116454e+003,5.833162e+001
3.118382e+003,5.826131e+001
3.120311e+003,5.821224e+001
3.122239e+003,5.822514e+001
3.124167e+003,5.819204e+001
3.126096e+003,5.812016e+001
3.128025e+003,5.808794e+001
3.129953e+003,5.801445e+001
3.131882e+003,5.802804e+001
3.133810e+003,5.801573e+001
3.135739e+003,5.788996e+001
3.137667e+003,5.781238e+001
3.139595e+003,5.777779e+001
3.141524e+003,5.774025e+001
3.143453e+003,5.772901e+001
3.145381e+003,5.770277e+001
3.147310e+003,5.769765e+001
3.149238e+003,5.764054e+001
3.151167e+003,5.756751e+001
3.153095e+003,5.753577e+001
3.155023e+003,5.752943e+001
3.156952e+003,5.750030e+001
3.158881e+003,5.745365e+001
3.160809e+003,5.739764e+001
3.162738e+003,5.736916e+001
3.164666e+003,5.733279e+001
3.166594e+003,5.728521e+001
3.168523e+003,5.726087e+001
3.170452e+003,5.723304e+001
3.172380e+003,5.715722e+001
3.174309e+003,5.711037e+001
3.176237e+003,5.709432e+001
3.178166e+003,5.709315e+001
3.180094e+003,5.698280e+001
3.182022e+003,5.691156e+001
3.183951e+003,5.691266e+001
3.185880e+003,5.689391e+001
3.187808e+003,5.680145e+001
3.189737e+003,5.674104e+001
3.191665e+003,5.673042e+001
3.193594e+003,5.671523e+001
3.195522e+003,5.664726e+001
3.197450e+003,5.664285e+001
3.199379e+003,5.657656e+001
3.201308e+003,5.645577e+001
3.203236e+003,5.641276e+001
3.205165e+003,5.638264e+001
3.207093e+003,5.631468e+001
3.209021e+003,5.632087e+001
3.210950e+003,5.628663e+001
3.212878e+003,5.628253e+001
3.214807e+003,5.629249e+001
3.216736e+003,5.617906e+001
3.218664e+003,5.615212e+001
3.220593e+003,5.611323e+001
3.222521e+003,5.598614e+001
3.224449e+003,5.589270e+001
3.226378e+003,5.588374e+001
3.228306e+003,5.588237e+001
3.230235e+003,5.581702e+001
3.232164e+003,5.576018e+001
3.234092e+003,5.574449e+001
3.236021e+003,5.570311e+001
3.237949e+003,5.561551e+001
3.239877e+003,5.556362e+001
3.241806e+003,5.549141e+001
3.243734e+003,5.544496e+001
3.245663e+003,5.546667e+001
3.247592e+003,5.541825e+001
3.249520e+003,5.534695e+001
3.251448e+003,5.528590e+001
3.253377e+003,5.527946e+001
3.255305e+003,5.523553e+001
3.257234e+003,5.516498e+001
3.259162e+003,5.514158e+001
3.261091e+003,5.510487e+001
3.263020e+003,5.502728e+001
3.264948e+003,5.500016e+001
3.266876e+003,5.494838e+001
3.268805e+003,5.488249e+001
3.270733e+003,5.489223e+001
3.272662e+003,5.492194e+001
3.274591e+003,5.488470e+001
3.276519e+003,5.485431e+001
3.278448e+003,5.479462e+001
3.280376e+003,5.468999e+001
3.282304e+003,5.465012e+001
3.284233e+003,5.462692e+001
3.286161e+003,5.460575e+001
3.288090e+003,5.457228e+001
3.290019e+003,5.450548e+001
3.291947e+003,5.447249e+001
3.293875e+003,5.440824e+001
3.295804e+003,5.434216e+001
3.297732e+003,5.432605e+001
3.299661e+003,5.427789e+001
3.301589e+003,5.423238e+001
3.303518e+003,5.419191e+001
3.305447e+003,5.410605e+001
3.307375e+003,5.408652e+001
3.309303e+003,5.413991e+001
3.311232e+003,5.405250e+001
3.313160e+003,5.399090e+001
3.315089e+003,5.392551e+001
3.317017e+003,5.385564e+001
3.318946e+003,5.381569e+001
3.320875e+003,5.374517e+001
3.322803e+003,5.366013e+001
3.324731e+003,5.361049e+001
3.326660e+003,5.357237e+001
3.328588e+003,5.353909e+001
3.330517e+003,5.346157e+001
3.332445e+003,5.335994e+001
3.334374e+003,5.332323e+001
3.336302e+003,5.329895e+001
3.338231e+003,5.319176e+001
3.340159e+003,5.310750e+001
3.342088e+003,5.310373e+001
3.344016e+003,5.304327e+001
3.345945e+003,5.296526e+001
3.347873e+003,5.289656e+001
3.349802e+003,5.281975e+001
3.351730e+003,5.274500e+001
3.353659e+003,5.267135e+001
3.355587e+003,5.267833e+001
3.357516e+003,5.261868e+001
3.359444e+003,5.252468e+001
3.361373e+003,5.249123e+001
3.363302e+003,5.241472e+001
3.365230e+003,5.236100e+001
3.367158e+003,5.230336e+001
3.369087e+003,5.222968e+001
3.371015e+003,5.214675e+001
3.372944e+003,5.209564e+001
3.374872e+003,5.203214e+001
3.376801e+003,5.195307e+001
3.378729e+003,5.190843e+001
3.380658e+003,5.178609e+001
3.382586e+003,5.170808e+001
3.384515e+003,5.177630e+001
3.386443e+003,5.172335e+001
3.388372e+003,5.159019e+001
3.390300e+003,5.156742e+001
3.392229e+003,5.166370e+001
3.394157e+003,5.161546e+001
3.396086e+003,5.152452e+001
3.398014e+003,5.147228e+001
3.399943e+003,5.131289e+001
3.401871e+003,5.126429e+001
3.403800e+003,5.123151e+001
3.405728e+003,5.120202e+001
3.407657e+003,5.115823e+001
3.409585e+003,5.116227e+001
3.411514e+003,5.116739e+001
3.413442e+003,5.113191e+001
3.415371e+003,5.104097e+001
3.417299e+003,5.095807e+001
3.419228e+003,5.102419e+001
3.421156e+003,5.120744e+001
3.423085e+003,5.110732e+001
3.425013e+003,5.092179e+001
3.426942e+003,5.085943e+001
3.428870e+003,5.088594e+001
3.430799e+003,5.088549e+001
3.432727e+003,5.083123e+001
3.434656e+003,5.077985e+001
3.436584e+003,5.077833e+001
3.438513e+003,5.078153e+001
3.440441e+003,5.089138e+001
3.442370e+003,5.106845e+001
3.444298e+003,5.101641e+001
3.446227e+003,5.108171e+001
3.448155e+003,5.116342e+001
3.450084e+003,5.087211e+001
3.452012e+003,5.080276e+001
3.453941e+003,5.082748e+001
3.455869e+003,5.084156e+001
3.457798e+003,5.078860e+001
3.459726e+003,5.084411e+001
3.461655e+003,5.094552e+001
3.463583e+003,5.094826e+001
3.465512e+003,5.091320e+001
3.467440e+003,5.100266e+001
3.469369e+003,5.098903e+001
3.471297e+003,5.098755e+001
3.473226e+003,5.096364e+001
3.475154e+003,5.106844e+001
3.477083e+003,5.107663e+001
3.479011e+003,5.110467e+001
3.480940e+003,5.127540e+001
3.482868e+003,5.137934e+001
3.484797e+003,5.126212e+001
3.486725e+003,5.136914e+001
3.488654e+003,5.147689e+001
3.490582e+003,5.143819e+001
3.492511e+003,5.140005e+001
3.494439e+003,5.148938e+001
3.496368e+003,5.158636e+001
3.498296e+003,5.154573e+001
3.500225e+003,5.155421e+001
3.502153e+003,5.195119e+001
3.504082e+003,5.219793e+001
3.506010e+003,5.188781e+001
3.507939e+003,5.183451e+001
3.509867e+003,5.211727e+001
3.511796e+003,5.199486e+001
3.513724e+003,5.186810e+001
3.515653e+003,5.183995e+001
3.517581e+003,5.195304e+001
3.519510e+003,5.203028e+001
3.521438e+003,5.218974e+001
3.523367e+003,5.262845e+001
3.525295e+003,5.261678e+001
3.527224e+003,5.269175e+001
3.529152e+003,5.279519e+001
3.531081e+003,5.259655e+001
3.533009e+003,5.240306e+001
3.534938e+003,5.241256e+001
3.536866e+003,5.267122e+001
3.538795e+003,5.255964e+001
3.540723e+003,5.254050e+001
3.542652e+003,5.269630e+001
3.544580e+003,5.314851e+001
3.546509e+003,5.347673e+001
3.548437e+003,5.325361e+001
3.550366e+003,5.292567e+001
3.552294e+003,5.332878e+001
3.554223e+003,5.327905e+001
3.556151e+003,5.305210e+001
3.558080e+003,5.307429e+001
3.560008e+003,5.329570e+001
3.561937e+003,5.346168e+001
3.563865e+003,5.356257e+001
3.565794e+003,5.429418e+001
3.567722e+003,5.525703e+001
3.569651e+003,5.441017e+001
3.571579e+003,5.374300e+001
3.573508e+003,5.367514e+001
3.575436e+003,5.391743e+001
3.577365e+003,5.397893e+001
3.579293e+003,5.400864e+001
3.581222e+003,5.395968e+001
3.583150e+003,5.389806e+001
3.585079e+003,5.395637e+001
3.587007e+003,5.521311e+001
3.588936e+003,5.538943e+001
3.590864e+003,5.429445e+001
3.592793e+003,5.406338e+001
3.594721e+003,5.464703e+001
3.596650e+003,5.478034e+001
3.598578e+003,5.473367e+001
3.600507e+003,5.492654e+001
3.602435e+003,5.484162e+001
3.604364e+003,5.449622e+001
3.606292e+003,5.474303e+001
3.608221e+003,5.588733e+001
3.610149e+003,5.610569e+001
3.612078e+003,5.616858e+001
3.614006e+003,5.676514e+001
3.615935e+003,5.613416e+001
3.617863e+003,5.638425e+001
3.619792e+003,5.706228e+001
3.621720e+003,5.603259e+001
3.623649e+003,5.511034e+001
3.625577e+003,5.496378e+001
3.627506e+003,5.568498e+001
3.629434e+003,5.818477e+001
3.631363e+003,5.680772e+001
3.633291e+003,5.625023e+001
3.635220e+003,5.633916e+001
3.637148e+003,5.632656e+001
3.639077e+003,5.662430e+001
3.641005e+003,5.671946e+001
3.642934e+003,5.693806e+001
3.644862e+003,5.670433e+001
3.646791e+003,5.772391e+001
3.648719e+003,6.015535e+001
3.650648e+003,6.043896e+001
3.652576e+003,5.843293e+001
3.654505e+003,5.729816e+001
3.656433e+003,5.818797e+001
3.658362e+003,5.787431e+001
3.660290e+003,5.740056e+001
3.662219e+003,5.728116e+001
3.664147e+003,5.729620e+001
3.666076e+003,5.716307e+001
3.668004e+003,5.746343e+001
3.669933e+003,5.967030e+001
3.671861e+003,5.920465e+001
3.673790e+003,5.815409e+001
3.675718e+003,6.089730e+001
3.677647e+003,5.966570e+001
3.679575e+003,5.860416e+001
3.681504e+003,5.785891e+001
3.683432e+003,5.745596e+001
3.685361e+003,5.734523e+001
3.687289e+003,5.781956e+001
3.689218e+003,5.987161e+001
3.691146e+003,5.940108e+001
3.693075e+003,5.803982e+001
3.695003e+003,5.728180e+001
3.696932e+003,5.715726e+001
3.698860e+003,5.682506e+001
3.700789e+003,5.722437e+001
3.702717e+003,5.762321e+001
3.704646e+003,5.711312e+001
3.706574e+003,5.692200e+001
3.708503e+003,5.727784e+001
3.710431e+003,5.904916e+001
3.712360e+003,6.002992e+001
3.714288e+003,5.900973e+001
3.716217e+003,5.788719e+001
3.718145e+003,5.758091e+001
3.720074e+003,5.746208e+001
3.722002e+003,5.768246e+001
3.723931e+003,5.762838e+001
3.725859e+003,5.756813e+001
3.727788e+003,5.736555e+001
3.729716e+003,5.679884e+001
3.731645e+003,5.766338e+001
3.733573e+003,5.890013e+001
3.735502e+003,6.057108e+001
3.737430e+003,6.030803e+001
3.739359e+003,5.925692e+001
3.741287e+003,5.871344e+001
3.743216e+003,5.844219e+001
3.745144e+003,6.100777e+001
3.747073e+003,6.018193e+001
3.749001e+003,6.033857e+001
3.750930e+003,6.217705e+001
3.752858e+003,6.118250e+001
3.754787e+003,5.935976e+001
3.756715e+003,5.871908e+001
3.758644e+003,5.905233e+001
3.760572e+003,5.919220e+001
3.762500e+003,5.836200e+001
3.764429e+003,5.830683e+001
3.766358e+003,5.872669e+001
3.768286e+003,5.842319e+001
3.770215e+003,5.920323e+001
3.772143e+003,5.858491e+001
3.774072e+003,5.786398e+001
3.776000e+003,5.768171e+001
3.777928e+003,5.792517e+001
3.779857e+003,5.873459e+001
3.781786e+003,5.818713e+001
3.783714e+003,5.808270e+001
3.785643e+003,5.842888e+001
3.787571e+003,5.799525e+001
3.789500e+003,5.779715e+001
3.791428e+003,5.777921e+001
3.793356e+003,5.762925e+001
3.795285e+003,5.790515e+001
3.797214e+003,5.882646e+001
3.799142e+003,5.841212e+001
3.801071e+003,5.983319e+001
3.802999e+003,6.000631e+001
3.804927e+003,5.840863e+001
3.806856e+003,5.902791e+001
3.808785e+003,5.877207e+001
3.810713e+003,5.791789e+001
3.812642e+003,5.764789e+001
3.814570e+003,5.786419e+001
3.816499e+003,5.962064e+001
3.818427e+003,5.890305e+001
3.820355e+003,5.945679e+001
3.822284e+003,6.031698e+001
3.824213e+003,5.876125e+001
3.826141e+003,5.864728e+001
3.828070e+003,5.858707e+001
3.829998e+003,5.809599e+001
3.831927e+003,5.852404e+001
3.833855e+003,5.856921e+001
3.835783e+003,5.887873e+001
3.837712e+003,5.989965e+001
3.839641e+003,6.051791e+001
3.841569e+003,5.941202e+001
3.843498e+003,5.897282e+001
3.845426e+003,5.849938e+001
3.847354e+003,5.787177e+001
3.849283e+003,5.792197e+001
3.851211e+003,5.797645e+001
3.853140e+003,6.081049e+001
3.855069e+003,6.072663e+001
3.856997e+003,5.923093e+001
3.858926e+003,5.822943e+001
3.860854e+003,5.805366e+001
3.862782e+003,5.870275e+001
3.864711e+003,5.946358e+001
3.866639e+003,5.863760e+001
3.868568e+003,5.806270e+001
3.870497e+003,5.975454e+001
3.872425e+003,5.878776e+001
3.874354e+003,5.894503e+001
3.876282e+003,5.818469e+001
3.878210e+003,5.744225e+001
3.880139e+003,5.846525e+001
3.882067e+003,5.871705e+001
3.883996e+003,5.805424e+001
3.885925e+003,5.891370e+001
3.887853e+003,5.810854e+001
3.889781e+003,5.768865e+001
3.891710e+003,5.893243e+001
3.893638e+003,5.863212e+001
3.895567e+003,5.772569e+001
3.897495e+003,5.763731e+001
3.899424e+003,5.851728e+001
3.901353e+003,5.896635e+001
3.903281e+003,5.946951e+001
3.905209e+003,5.937331e+001
3.907138e+003,5.824762e+001
3.909066e+003,5.758739e+001
3.910995e+003,5.748448e+001
3.912924e+003,5.742119e+001
3.914852e+003,5.737250e+001
3.916781e+003,5.799547e+001
3.918709e+003,5.816298e+001
3.920637e+003,5.800708e+001
3.922566e+003,5.775697e+001
3.924494e+003,5.813638e+001
3.926423e+003,5.788877e+001
3.928352e+003,5.757013e+001
3.930280e+003,5.782079e+001
3.932208e+003,5.811560e+001
3.934137e+003,5.800053e+001
3.936065e+003,5.754544e+001
3.937994e+003,5.751794e+001
3.939922e+003,5.739884e+001
3.941851e+003,5.768353e+001
3.943780e+003,5.796706e+001
3.945708e+003,5.762629e+001
3.947636e+003,5.783220e+001
3.949565e+003,5.804913e+001
3.951493e+003,5.785272e+001
3.953422e+003,5.758475e+001
3.955350e+003,5.743950e+001
3.957279e+003,5.745708e+001
3.959208e+003,5.743330e+001
3.961136e+003,5.749937e+001
3.963064e+003,5.755507e+001
3.964993e+003,5.739414e+001
3.966921e+003,5.731986e+001
3.968850e+003,5.735104e+001
3.970778e+003,5.733931e+001
3.972707e+003,5.738960e+001
3.974635e+003,5.748380e+001
3.976564e+003,5.738485e+001
3.978492e+003,5.729210e+001
3.980421e+003,5.731496e+001
3.982349e+003,5.735214e+001
3.984278e+003,5.731465e+001
3.986206e+003,5.727717e+001
3.988135e+003,5.725430e+001
3.990063e+003,5.738689e+001
3.991992e+003,5.735801e+001
3.993920e+003,5.722900e+001
3.995849e+003,5.727188e+001
3.997777e+003,5.722392e+001
3.999706e+003,5.720702e+001
