3.991992e+002,7.585751e+001
4.011277e+002,7.174189e+001
4.030562e+002,6.860428e+001
4.049847e+002,6.631538e+001
4.069132e+002,6.453894e+001
4.088417e+002,6.119966e+001
4.107702e+002,5.839263e+001
4.126987e+002,5.583437e+001
4.146272e+002,5.265989e+001
4.165557e+002,4.935196e+001
4.184842e+002,4.601199e+001
4.204127e+002,3.983342e+001
4.223412e+002,3.680239e+001
4.242697e+002,3.353386e+001
4.261982e+002,3.086049e+001
4.281267e+002,2.779133e+001
4.300552e+002,2.468776e+001
4.319837e+002,2.144593e+001
4.339122e+002,1.916794e+001
4.358407e+002,1.729256e+001
4.377692e+002,1.581978e+001
4.396977e+002,1.525805e+001
4.416262e+002,1.544834e+001
4.435547e+002,1.598848e+001
4.454832e+002,1.693908e+001
4.474117e+002,1.818006e+001
4.493401e+002,1.908147e+001
4.512686e+002,1.863083e+001
4.531971e+002,1.716770e+001
4.551256e+002,1.555603e+001
4.570541e+002,1.438464e+001
4.589826e+002,1.357339e+001
4.609111e+002,1.361603e+001
4.628396e+002,1.340486e+001
4.647681e+002,1.290326e+001
4.666966e+002,1.235832e+001
4.686251e+002,1.200805e+001
4.705536e+002,1.192345e+001
4.724821e+002,1.201844e+001
4.744106e+002,1.195969e+001
4.763391e+002,1.200991e+001
4.782676e+002,1.197587e+001
4.801961e+002,1.219758e+001
4.821246e+002,1.258007e+001
4.840531e+002,1.299920e+001
4.859816e+002,1.331897e+001
4.879101e+002,1.383192e+001
4.898386e+002,1.435647e+001
4.917671e+002,1.526374e+001
4.936956e+002,1.649264e+001
4.956241e+002,1.770024e+001
4.975526e+002,1.881344e+001
4.994811e+002,1.994312e+001
5.014096e+002,2.118605e+001
5.033381e+002,2.264406e+001
5.052666e+002,2.403176e+001
5.071951e+002,2.589994e+001
5.091236e+002,2.758664e+001
5.110521e+002,2.879641e+001
5.129806e+002,2.874401e+001
5.149091e+002,2.771623e+001
5.168376e+002,2.663520e+001
5.187661e+002,2.626876e+001
5.206946e+002,2.642262e+001
5.226231e+002,2.717981e+001
5.245516e+002,2.883102e+001
5.264801e+002,3.156805e+001
5.284086e+002,3.452413e+001
5.303371e+002,3.777743e+001
5.322656e+002,4.107761e+001
5.341941e+002,4.463700e+001
5.361226e+002,4.872117e+001
5.380511e+002,5.312991e+001
5.399796e+002,5.740621e+001
5.419081e+002,6.154172e+001
5.438365e+002,6.504255e+001
5.457651e+002,6.839258e+001
5.476936e+002,7.138768e+001
5.496221e+002,7.439972e+001
5.515506e+002,7.711835e+001
5.534791e+002,7.915076e+001
5.554076e+002,8.082305e+001
5.573361e+002,8.276728e+001
5.592646e+002,8.484933e+001
5.611931e+002,8.658237e+001
5.631216e+002,8.783011e+001
5.650500e+002,8.901878e+001
5.669786e+002,9.059609e+001
5.689070e+002,9.225301e+001
5.708356e+002,9.318153e+001
5.727640e+002,9.346355e+001
5.746926e+002,9.395231e+001
5.766210e+002,9.501337e+001
5.785496e+002,9.605596e+001
5.804780e+002,9.697074e+001
5.824066e+002,9.734587e+001
5.843350e+002,9.779526e+001
5.862635e+002,9.884944e+001
5.881920e+002,9.974406e+001
5.901205e+002,1.000000e+002
5.920490e+002,9.985728e+001
5.939775e+002,9.952374e+001
5.959060e+002,9.971418e+001
5.978345e+002,9.994641e+001
5.997631e+002,9.954105e+001
6.016915e+002,9.848031e+001
6.036201e+002,9.775739e+001
6.055485e+002,9.768489e+001
6.074771e+002,9.734045e+001
6.094055e+002,9.631357e+001
6.113340e+002,9.509579e+001
6.132625e+002,9.435665e+001
6.151910e+002,9.362808e+001
6.171195e+002,9.208084e+001
6.190480e+002,9.046417e+001
6.209765e+002,8.897722e+001
6.229050e+002,8.726650e+001
6.248335e+002,8.560454e+001
6.267620e+002,8.320615e+001
6.286905e+002,8.020972e+001
6.306190e+002,7.707401e+001
6.325475e+002,7.414198e+001
6.344760e+002,7.079267e+001
6.364045e+002,6.671524e+001
6.383330e+002,6.191777e+001
6.402615e+002,5.687877e+001
6.421900e+002,5.164505e+001
6.441185e+002,4.650177e+001
6.460470e+002,4.136761e+001
6.479755e+002,3.660938e+001
6.499040e+002,3.273314e+001
6.518325e+002,3.005578e+001
6.537610e+002,2.839803e+001
6.556895e+002,2.769427e+001
6.576180e+002,2.782022e+001
6.595465e+002,2.861911e+001
6.614750e+002,2.988180e+001
6.634035e+002,3.120053e+001
6.653320e+002,3.199648e+001
6.672605e+002,3.111702e+001
6.691890e+002,2.981801e+001
6.711175e+002,3.000970e+001
6.730460e+002,2.903853e+001
6.749745e+002,2.742240e+001
6.769030e+002,2.569157e+001
6.788315e+002,2.409356e+001
6.807599e+002,2.244650e+001
6.826885e+002,2.087322e+001
6.846169e+002,1.927877e+001
6.865455e+002,1.788241e+001
6.884739e+002,1.661092e+001
6.904025e+002,1.584311e+001
6.923309e+002,1.553136e+001
6.942595e+002,1.557986e+001
6.961880e+002,1.577781e+001
6.981165e+002,1.606640e+001
7.000450e+002,1.626100e+001
7.019734e+002,1.662835e+001
7.039020e+002,1.703124e+001
7.058304e+002,1.757853e+001
7.077590e+002,1.823413e+001
7.096874e+002,1.912172e+001
7.116160e+002,2.005707e+001
7.135444e+002,2.105204e+001
7.154730e+002,2.205975e+001
7.174014e+002,2.319245e+001
7.193300e+002,2.461275e+001
7.212584e+002,2.666374e+001
7.231870e+002,2.912303e+001
7.251154e+002,3.180564e+001
7.270439e+002,3.462535e+001
7.289724e+002,3.750874e+001
7.309009e+002,4.055166e+001
7.328294e+002,4.369917e+001
7.347579e+002,4.681480e+001
7.366864e+002,4.980192e+001
7.386149e+002,5.279148e+001
7.405434e+002,5.584512e+001
7.424719e+002,5.890723e+001
7.444004e+002,6.165225e+001
7.463289e+002,6.410491e+001
7.482574e+002,6.643282e+001
7.501859e+002,6.890396e+001
7.521144e+002,7.134729e+001
7.540429e+002,7.346802e+001
7.559714e+002,7.516781e+001
7.578999e+002,7.693890e+001
7.598284e+002,7.880083e+001
7.617569e+002,8.061683e+001
7.636854e+002,8.188703e+001
7.656139e+002,8.289368e+001
7.675424e+002,8.397453e+001
7.694709e+002,8.531802e+001
7.713994e+002,8.645516e+001
7.733279e+002,8.716252e+001
7.752564e+002,8.763449e+001
7.771849e+002,8.839306e+001
7.791134e+002,8.934885e+001
7.810419e+002,9.016791e+001
7.829704e+002,9.039678e+001
7.848989e+002,9.054832e+001
7.868274e+002,9.088613e+001
7.887559e+002,9.153982e+001
7.906844e+002,9.195048e+001
7.926129e+002,9.188002e+001
7.945414e+002,9.160686e+001
7.964699e+002,9.179271e+001
7.983984e+002,9.213193e+001
8.003269e+002,9.214479e+001
8.022554e+002,9.159958e+001
8.041839e+002,9.108244e+001
8.061124e+002,9.088292e+001
8.080409e+002,9.086935e+001
8.099694e+002,9.035402e+001
8.118979e+002,8.938017e+001
8.138264e+002,8.834389e+001
8.157549e+002,8.776223e+001
8.176833e+002,8.714379e+001
8.196119e+002,8.607867e+001
8.215403e+002,8.459765e+001
8.234689e+002,8.321976e+001
8.253973e+002,8.205847e+001
8.273259e+002,8.089403e+001
8.292543e+002,7.922615e+001
8.311829e+002,7.722972e+001
8.331113e+002,7.511178e+001
8.350399e+002,7.326450e+001
8.369683e+002,7.140648e+001
8.388969e+002,6.939430e+001
8.408253e+002,6.722386e+001
8.427538e+002,6.522197e+001
8.446824e+002,6.355263e+001
8.466108e+002,6.201468e+001
8.485394e+002,6.022366e+001
8.504678e+002,5.841380e+001
8.523964e+002,5.687976e+001
8.543248e+002,5.562712e+001
8.562534e+002,5.423238e+001
8.581818e+002,5.251598e+001
8.601104e+002,5.060695e+001
8.620388e+002,4.871231e+001
8.639673e+002,4.687894e+001
8.658958e+002,4.499557e+001
8.678243e+002,4.295924e+001
8.697528e+002,4.097733e+001
8.716813e+002,3.912598e+001
8.736098e+002,3.740092e+001
8.755383e+002,3.565125e+001
8.774668e+002,3.402450e+001
8.793953e+002,3.287847e+001
8.813238e+002,3.214308e+001
8.832523e+002,3.136087e+001
8.851808e+002,3.020124e+001
8.871093e+002,2.876799e+001
8.890378e+002,2.751429e+001
8.909663e+002,2.661166e+001
8.928948e+002,2.580903e+001
8.948233e+002,2.498449e+001
8.967518e+002,2.412288e+001
8.986803e+002,2.329845e+001
9.006088e+002,2.246930e+001
9.025373e+002,2.169535e+001
9.044658e+002,2.093934e+001
9.063943e+002,2.017066e+001
9.083228e+002,1.940892e+001
9.102513e+002,1.871705e+001
9.121798e+002,1.803291e+001
9.141083e+002,1.736134e+001
9.160368e+002,1.668810e+001
9.179653e+002,1.605169e+001
9.198938e+002,1.545550e+001
9.218223e+002,1.495020e+001
9.237508e+002,1.445899e+001
9.256793e+002,1.398020e+001
9.276078e+002,1.353045e+001
9.295363e+002,1.316309e+001
9.314648e+002,1.286170e+001
9.333932e+002,1.256170e+001
9.353218e+002,1.226690e+001
9.372502e+002,1.201322e+001
9.391788e+002,1.175070e+001
9.411072e+002,1.154246e+001
9.430358e+002,1.134093e+001
9.449643e+002,1.115152e+001
9.468928e+002,1.099188e+001
9.488213e+002,1.088550e+001
9.507498e+002,1.073747e+001
9.526783e+002,1.061038e+001
9.546068e+002,1.052275e+001
9.565353e+002,1.046925e+001
9.584637e+002,1.041414e+001
9.603923e+002,1.037852e+001
9.623207e+002,1.036363e+001
9.642493e+002,1.034187e+001
9.661777e+002,1.026723e+001
9.681063e+002,1.021750e+001
9.700347e+002,1.016608e+001
9.719633e+002,1.013155e+001
9.738917e+002,1.010239e+001
9.758203e+002,1.010788e+001
9.777487e+002,1.009810e+001
9.796772e+002,1.006178e+001
9.816057e+002,1.001336e+001
9.835342e+002,1.000000e+001
9.854627e+002,1.002411e+001
9.873912e+002,1.004409e+001
9.893197e+002,1.002843e+001
9.912482e+002,1.003558e+001
9.931768e+002,1.004548e+001
9.951052e+002,1.005305e+001
9.970338e+002,1.003627e+001
9.989622e+002,1.004785e+001
1.000891e+003,1.003146e+001
1.002819e+003,1.002357e+001
1.004748e+003,1.000461e+001
1.006676e+003,1.003457e+001
1.008605e+003,1.005889e+001
1.010533e+003,1.004553e+001
1.012462e+003,1.004696e+001
1.014390e+003,1.009350e+001
1.016319e+003,1.014148e+001
1.018247e+003,1.019241e+001
1.020176e+003,1.020860e+001
1.022104e+003,1.023529e+001
1.024033e+003,1.026909e+001
1.025961e+003,1.032333e+001
1.027890e+003,1.036313e+001
1.029818e+003,1.043150e+001
1.031747e+003,1.049888e+001
1.033675e+003,1.059739e+001
1.035604e+003,1.066522e+001
1.037532e+003,1.074919e+001
1.039461e+003,1.079614e+001
1.041389e+003,1.086307e+001
1.043318e+003,1.093690e+001
1.045246e+003,1.105764e+001
1.047175e+003,1.114259e+001
1.049103e+003,1.120778e+001
1.051032e+003,1.131022e+001
1.052960e+003,1.144417e+001
1.054889e+003,1.154065e+001
1.056817e+003,1.166099e+001
1.058746e+003,1.178679e+001
1.060674e+003,1.191586e+001
1.062603e+003,1.201969e+001
1.064531e+003,1.213342e+001
1.066460e+003,1.222808e+001
1.068388e+003,1.233985e+001
1.070317e+003,1.244488e+001
1.072245e+003,1.249243e+001
1.074174e+003,1.253018e+001
1.076102e+003,1.259672e+001
1.078031e+003,1.258890e+001
1.079959e+003,1.259301e+001
1.081888e+003,1.269248e+001
1.083816e+003,1.286860e+001
1.085745e+003,1.307453e+001
1.087673e+003,1.328915e+001
1.089602e+003,1.344739e+001
1.091530e+003,1.362316e+001
1.093459e+003,1.387409e+001
1.095387e+003,1.413849e+001
1.097316e+003,1.435301e+001
1.099244e+003,1.462444e+001
1.101173e+003,1.486170e+001
1.103101e+003,1.511729e+001
1.105030e+003,1.537401e+001
1.106958e+003,1.563576e+001
1.108887e+003,1.590175e+001
1.110815e+003,1.617517e+001
1.112744e+003,1.641097e+001
1.114672e+003,1.666015e+001
1.116601e+003,1.688539e+001
1.118529e+003,1.710891e+001
1.120458e+003,1.734372e+001
1.122386e+003,1.759266e+001
1.124315e+003,1.781487e+001
1.126243e+003,1.802954e+001
1.128172e+003,1.826871e+001
1.130100e+003,1.850583e+001
1.132029e+003,1.871310e+001
1.133957e+003,1.893419e+001
1.135886e+003,1.913460e+001
1.137814e+003,1.936074e+001
1.139743e+003,1.955305e+001
1.141671e+003,1.976536e+001
1.143600e+003,1.999200e+001
1.145528e+003,2.019966e+001
1.147457e+003,2.038699e+001
1.149385e+003,2.059179e+001
1.151314e+003,2.079317e+001
1.153242e+003,2.101826e+001
1.155171e+003,2.120792e+001
1.157099e+003,2.139751e+001
1.159028e+003,2.163161e+001
1.160956e+003,2.186999e+001
1.162885e+003,2.208484e+001
1.164813e+003,2.230430e+001
1.166742e+003,2.250242e+001
1.168670e+003,2.268378e+001
1.170599e+003,2.291193e+001
1.172527e+003,2.313800e+001
1.174456e+003,2.331611e+001
1.176384e+003,2.350088e+001
1.178313e+003,2.368105e+001
1.180241e+003,2.390084e+001
1.182170e+003,2.411180e+001
1.184098e+003,2.429408e+001
1.186027e+003,2.448215e+001
1.187955e+003,2.467051e+001
1.189884e+003,2.483859e+001
1.191812e+003,2.503010e+001
1.193741e+003,2.519326e+001
1.195669e+003,2.533031e+001
1.197598e+003,2.551614e+001
1.199526e+003,2.571071e+001
1.201455e+003,2.585890e+001
1.203383e+003,2.600931e+001
1.205312e+003,2.617557e+001
1.207240e+003,2.633525e+001
1.209169e+003,2.650085e+001
1.211097e+003,2.667504e+001
1.213026e+003,2.684262e+001
1.214954e+003,2.699798e+001
1.216883e+003,2.714994e+001
1.218811e+003,2.727857e+001
1.220740e+003,2.738014e+001
1.222668e+003,2.750398e+001
1.224597e+003,2.764985e+001
1.226525e+003,2.779289e+001
1.228453e+003,2.794259e+001
1.230382e+003,2.807232e+001
1.232311e+003,2.817544e+001
1.234239e+003,2.828650e+001
1.236167e+003,2.842970e+001
1.238096e+003,2.857690e+001
1.240025e+003,2.869314e+001
1.241953e+003,2.878453e+001
1.243882e+003,2.888335e+001
1.245810e+003,2.901485e+001
1.247739e+003,2.915004e+001
1.249667e+003,2.925123e+001
1.251596e+003,2.935434e+001
1.253524e+003,2.948428e+001
1.255453e+003,2.962331e+001
1.257381e+003,2.975090e+001
1.259310e+003,2.986982e+001
1.261238e+003,2.995923e+001
1.263167e+003,3.003064e+001
1.265095e+003,3.013098e+001
1.267024e+003,3.027037e+001
1.268952e+003,3.041114e+001
1.270880e+003,3.051431e+001
1.272809e+003,3.058964e+001
1.274738e+003,3.067639e+001
1.276666e+003,3.079993e+001
1.278594e+003,3.092592e+001
1.280523e+003,3.101601e+001
1.282452e+003,3.110785e+001
1.284380e+003,3.122566e+001
1.286308e+003,3.136459e+001
1.288237e+003,3.148408e+001
1.290166e+003,3.154039e+001
1.292094e+003,3.160957e+001
1.294022e+003,3.171927e+001
1.295951e+003,3.183435e+001
1.297880e+003,3.191406e+001
1.299808e+003,3.197267e+001
1.301736e+003,3.205298e+001
1.303665e+003,3.215464e+001
1.305594e+003,3.226199e+001
1.307522e+003,3.236504e+001
1.309450e+003,3.241143e+001
1.311379e+003,3.244863e+001
1.313307e+003,3.258407e+001
1.315236e+003,3.267005e+001
1.317164e+003,3.274337e+001
1.319093e+003,3.282544e+001
1.321021e+003,3.283775e+001
1.322950e+003,3.285500e+001
1.324878e+003,3.294809e+001
1.326807e+003,3.300807e+001
1.328735e+003,3.305479e+001
1.330664e+003,3.309476e+001
1.332592e+003,3.316321e+001
1.334521e+003,3.321343e+001
1.336449e+003,3.331480e+001
1.338378e+003,3.347762e+001
1.340307e+003,3.364587e+001
1.342235e+003,3.353999e+001
1.344163e+003,3.352050e+001
1.346092e+003,3.357385e+001
1.348021e+003,3.361164e+001
1.349949e+003,3.366921e+001
1.351877e+003,3.371016e+001
1.353806e+003,3.377831e+001
1.355734e+003,3.385884e+001
1.357663e+003,3.385241e+001
1.359591e+003,3.385086e+001
1.361520e+003,3.401768e+001
1.363448e+003,3.427863e+001
1.365377e+003,3.412187e+001
1.367305e+003,3.404035e+001
1.369234e+003,3.407639e+001
1.371162e+003,3.402544e+001
1.373091e+003,3.411457e+001
1.375019e+003,3.435355e+001
1.376948e+003,3.416776e+001
1.378876e+003,3.405965e+001
1.380805e+003,3.398776e+001
1.382733e+003,3.391965e+001
1.384662e+003,3.381998e+001
1.386590e+003,3.385270e+001
1.388519e+003,3.376102e+001
1.390447e+003,3.344341e+001
1.392376e+003,3.319274e+001
1.394304e+003,3.322821e+001
1.396233e+003,3.328712e+001
1.398161e+003,3.319490e+001
1.400090e+003,3.324153e+001
1.402018e+003,3.304832e+001
1.403947e+003,3.308561e+001
1.405875e+003,3.324202e+001
1.407804e+003,3.313328e+001
1.409732e+003,3.310490e+001
1.411661e+003,3.318455e+001
1.413589e+003,3.308987e+001
1.415518e+003,3.291385e+001
1.417446e+003,3.279865e+001
1.419375e+003,3.269513e+001
1.421303e+003,3.199824e+001
1.423232e+003,3.125436e+001
1.425160e+003,3.047826e+001
1.427089e+003,2.975356e+001
1.429017e+003,2.934781e+001
1.430946e+003,2.902363e+001
1.432874e+003,2.864817e+001
1.434803e+003,2.832331e+001
1.436731e+003,2.838148e+001
1.438660e+003,2.821394e+001
1.440588e+003,2.795905e+001
1.442517e+003,2.788401e+001
1.444445e+003,2.777677e+001
1.446374e+003,2.766949e+001
1.448302e+003,2.761305e+001
1.450231e+003,2.738066e+001
1.452159e+003,2.713983e+001
1.454088e+003,2.695728e+001
1.456016e+003,2.702317e+001
1.457945e+003,2.772860e+001
1.459873e+003,2.740704e+001
1.461802e+003,2.715182e+001
1.463730e+003,2.724527e+001
1.465659e+003,2.763471e+001
1.467587e+003,2.759075e+001
1.469516e+003,2.755517e+001
1.471444e+003,2.782246e+001
1.473373e+003,2.861478e+001
1.475301e+003,2.859379e+001
1.477230e+003,2.869006e+001
1.479158e+003,2.871786e+001
1.481087e+003,2.903060e+001
1.483015e+003,2.931009e+001
1.484944e+003,2.946499e+001
1.486872e+003,2.983657e+001
1.488801e+003,3.046886e+001
1.490729e+003,3.107805e+001
1.492658e+003,3.093085e+001
1.494586e+003,3.085015e+001
1.496515e+003,3.143531e+001
1.498443e+003,3.185305e+001
1.500372e+003,3.191986e+001
1.502300e+003,3.185942e+001
1.504229e+003,3.176027e+001
1.506157e+003,3.239729e+001
1.508086e+003,3.375706e+001
1.510014e+003,3.308018e+001
1.511943e+003,3.282435e+001
1.513871e+003,3.267202e+001
1.515800e+003,3.286613e+001
1.517728e+003,3.330372e+001
1.519657e+003,3.309048e+001
1.521585e+003,3.379797e+001
1.523514e+003,3.367985e+001
1.525442e+003,3.346706e+001
1.527371e+003,3.362378e+001
1.529299e+003,3.349042e+001
1.531228e+003,3.333273e+001
1.533156e+003,3.378607e+001
1.535085e+003,3.395173e+001
1.537013e+003,3.348857e+001
1.538942e+003,3.378819e+001
1.540870e+003,3.533234e+001
1.542799e+003,3.489249e+001
1.544727e+003,3.463076e+001
1.546656e+003,3.420118e+001
1.548584e+003,3.393981e+001
1.550513e+003,3.416949e+001
1.552441e+003,3.400029e+001
1.554370e+003,3.413708e+001
1.556298e+003,3.408389e+001
1.558227e+003,3.450606e+001
1.560155e+003,3.541802e+001
1.562084e+003,3.443789e+001
1.564012e+003,3.414230e+001
1.565941e+003,3.414820e+001
1.567869e+003,3.400609e+001
1.569798e+003,3.452602e+001
1.571726e+003,3.440081e+001
1.573655e+003,3.403415e+001
1.575583e+003,3.437175e+001
1.577512e+003,3.483560e+001
1.579440e+003,3.439771e+001
1.581369e+003,3.425381e+001
1.583297e+003,3.424064e+001
1.585226e+003,3.425896e+001
1.587154e+003,3.428674e+001
1.589083e+003,3.437069e+001
1.591011e+003,3.442767e+001
1.592940e+003,3.445281e+001
1.594868e+003,3.456189e+001
1.596797e+003,3.462277e+001
1.598725e+003,3.456702e+001
1.600654e+003,3.459249e+001
1.602582e+003,3.464980e+001
1.604511e+003,3.466575e+001
1.606439e+003,3.466673e+001
1.608368e+003,3.478525e+001
1.610296e+003,3.476442e+001
1.612225e+003,3.466406e+001
1.614153e+003,3.452359e+001
1.616082e+003,3.486656e+001
1.618010e+003,3.519692e+001
1.619939e+003,3.475989e+001
1.621867e+003,3.464096e+001
1.623796e+003,3.503453e+001
1.625724e+003,3.483157e+001
1.627653e+003,3.481555e+001
1.629581e+003,3.481004e+001
1.631510e+003,3.454736e+001
1.633438e+003,3.435764e+001
1.635367e+003,3.491399e+001
1.637295e+003,3.540247e+001
1.639224e+003,3.487061e+001
1.641152e+003,3.464422e+001
1.643081e+003,3.446422e+001
1.645009e+003,3.441105e+001
1.646938e+003,3.534666e+001
1.648866e+003,3.521573e+001
1.650795e+003,3.443307e+001
1.652723e+003,3.492649e+001
1.654652e+003,3.574981e+001
1.656580e+003,3.493833e+001
1.658509e+003,3.455626e+001
1.660437e+003,3.444344e+001
1.662366e+003,3.470921e+001
1.664294e+003,3.478985e+001
1.666223e+003,3.442301e+001
1.668151e+003,3.449393e+001
1.670080e+003,3.508274e+001
1.672008e+003,3.493648e+001
1.673937e+003,3.462572e+001
1.675865e+003,3.499105e+001
1.677794e+003,3.476067e+001
1.679722e+003,3.471791e+001
1.681651e+003,3.466177e+001
1.683579e+003,3.502592e+001
1.685508e+003,3.572602e+001
1.687436e+003,3.511528e+001
1.689365e+003,3.500524e+001
1.691293e+003,3.490708e+001
1.693222e+003,3.463602e+001
1.695150e+003,3.488552e+001
1.697079e+003,3.555027e+001
1.699007e+003,3.522973e+001
1.700936e+003,3.582362e+001
1.702864e+003,3.535281e+001
1.704793e+003,3.526429e+001
1.706721e+003,3.550818e+001
1.708650e+003,3.519029e+001
1.710578e+003,3.505598e+001
1.712507e+003,3.494355e+001
1.714435e+003,3.511790e+001
1.716364e+003,3.551424e+001
1.718292e+003,3.593011e+001
1.720221e+003,3.538078e+001
1.722149e+003,3.502775e+001
1.724078e+003,3.508425e+001
1.726006e+003,3.501004e+001
1.727935e+003,3.493946e+001
1.729863e+003,3.511230e+001
1.731792e+003,3.509969e+001
1.733720e+003,3.559151e+001
1.735649e+003,3.582998e+001
1.737577e+003,3.524841e+001
1.739506e+003,3.542969e+001
1.741434e+003,3.551536e+001
1.743363e+003,3.560214e+001
1.745291e+003,3.564479e+001
1.747220e+003,3.566124e+001
1.749148e+003,3.587422e+001
1.751077e+003,3.602850e+001
1.753005e+003,3.586152e+001
1.754934e+003,3.553663e+001
1.756862e+003,3.575748e+001
1.758791e+003,3.571744e+001
1.760719e+003,3.568571e+001
1.762648e+003,3.597050e+001
1.764576e+003,3.571302e+001
1.766505e+003,3.554045e+001
1.768433e+003,3.570296e+001
1.770362e+003,3.570282e+001
1.772290e+003,3.628880e+001
1.774219e+003,3.622060e+001
1.776147e+003,3.588760e+001
1.778076e+003,3.569465e+001
1.780004e+003,3.579258e+001
1.781933e+003,3.588712e+001
1.783861e+003,3.581447e+001
1.785790e+003,3.589953e+001
1.787718e+003,3.574257e+001
1.789647e+003,3.565672e+001
1.791575e+003,3.608382e+001
1.793504e+003,3.639197e+001
1.795432e+003,3.611209e+001
1.797361e+003,3.595625e+001
1.799289e+003,3.596165e+001
1.801218e+003,3.617122e+001
1.803146e+003,3.611287e+001
1.805075e+003,3.599289e+001
1.807003e+003,3.593290e+001
1.808932e+003,3.597456e+001
1.810860e+003,3.615099e+001
1.812789e+003,3.620519e+001
1.814717e+003,3.600743e+001
1.816646e+003,3.597971e+001
1.818574e+003,3.598885e+001
1.820503e+003,3.600294e+001
1.822431e+003,3.598228e+001
1.824360e+003,3.613020e+001
1.826288e+003,3.620417e+001
1.828217e+003,3.608776e+001
1.830145e+003,3.650060e+001
1.832074e+003,3.636032e+001
1.834002e+003,3.610163e+001
1.835931e+003,3.610390e+001
1.837859e+003,3.616280e+001
1.839788e+003,3.611051e+001
1.841716e+003,3.601585e+001
1.843645e+003,3.633054e+001
1.845573e+003,3.652280e+001
1.847502e+003,3.629321e+001
1.849430e+003,3.621185e+001
1.851359e+003,3.613163e+001
1.853287e+003,3.611820e+001
1.855216e+003,3.609925e+001
1.857144e+003,3.611411e+001
1.859073e+003,3.613218e+001
1.861001e+003,3.614172e+001
1.862930e+003,3.612263e+001
1.864858e+003,3.606519e+001
1.866786e+003,3.613748e+001
1.868715e+003,3.652377e+001
1.870644e+003,3.645904e+001
1.872572e+003,3.614843e+001
1.874500e+003,3.607214e+001
1.876429e+003,3.607172e+001
1.878358e+003,3.609322e+001
1.880286e+003,3.610239e+001
1.882215e+003,3.610110e+001
1.884143e+003,3.610080e+001
1.886072e+003,3.605694e+001
1.888000e+003,3.603226e+001
1.889929e+003,3.623862e+001
1.891857e+003,3.612279e+001
1.893786e+003,3.602328e+001
1.895714e+003,3.609315e+001
1.897643e+003,3.604825e+001
1.899571e+003,3.601264e+001
1.901500e+003,3.600098e+001
1.903428e+003,3.596880e+001
1.905357e+003,3.593781e+001
1.907285e+003,3.593927e+001
1.909214e+003,3.602406e+001
1.911142e+003,3.602489e+001
1.913071e+003,3.589356e+001
1.914999e+003,3.577851e+001
1.916927e+003,3.583442e+001
1.918856e+003,3.600274e+001
1.920785e+003,3.584219e+001
1.922713e+003,3.592156e+001
1.924641e+003,3.588216e+001
1.926570e+003,3.573247e+001
1.928499e+003,3.570095e+001
1.930427e+003,3.566928e+001
1.932355e+003,3.565757e+001
1.934284e+003,3.564653e+001
1.936213e+003,3.561647e+001
1.938141e+003,3.559648e+001
1.940069e+003,3.553691e+001
1.941998e+003,3.562418e+001
1.943927e+003,3.567600e+001
1.945855e+003,3.560767e+001
1.947783e+003,3.559064e+001
1.949712e+003,3.552992e+001
1.951641e+003,3.550168e+001
1.953569e+003,3.546269e+001
1.955497e+003,3.549005e+001
1.957426e+003,3.547469e+001
1.959354e+003,3.547765e+001
1.961283e+003,3.548328e+001
1.963211e+003,3.542638e+001
1.965140e+003,3.539588e+001
1.967068e+003,3.555157e+001
1.968997e+003,3.553724e+001
1.970925e+003,3.544459e+001
1.972854e+003,3.541286e+001
1.974782e+003,3.542379e+001
1.976711e+003,3.545163e+001
1.978639e+003,3.546595e+001
1.980568e+003,3.544370e+001
1.982496e+003,3.542700e+001
1.984425e+003,3.542858e+001
1.986354e+003,3.544833e+001
1.988282e+003,3.547727e+001
1.990210e+003,3.544191e+001
1.992139e+003,3.552495e+001
1.994068e+003,3.551342e+001
1.995996e+003,3.542329e+001
1.997924e+003,3.543471e+001
1.999853e+003,3.542392e+001
2.001781e+003,3.541253e+001
2.003710e+003,3.538899e+001
2.005638e+003,3.540322e+001
2.007567e+003,3.543041e+001
2.009495e+003,3.540419e+001
2.011424e+003,3.535367e+001
2.013352e+003,3.534866e+001
2.015281e+003,3.535497e+001
2.017209e+003,3.542022e+001
2.019138e+003,3.535388e+001
2.021066e+003,3.528101e+001
2.022995e+003,3.524904e+001
2.024923e+003,3.521360e+001
2.026852e+003,3.520292e+001
2.028780e+003,3.519814e+001
2.030709e+003,3.514631e+001
2.032637e+003,3.513471e+001
2.034566e+003,3.512770e+001
2.036494e+003,3.511900e+001
2.038423e+003,3.509151e+001
2.040351e+003,3.508845e+001
2.042280e+003,3.509277e+001
2.044208e+003,3.507916e+001
2.046137e+003,3.506264e+001
2.048065e+003,3.504300e+001
2.049994e+003,3.501284e+001
2.051922e+003,3.499429e+001
2.053851e+003,3.499178e+001
2.055779e+003,3.502246e+001
2.057708e+003,3.504837e+001
2.059636e+003,3.504262e+001
2.061565e+003,3.501934e+001
2.063493e+003,3.502659e+001
2.065422e+003,3.506251e+001
2.067350e+003,3.503867e+001
2.069279e+003,3.498959e+001
2.071207e+003,3.497263e+001
2.073136e+003,3.499805e+001
2.075064e+003,3.501449e+001
2.076993e+003,3.498586e+001
2.078921e+003,3.497874e+001
2.080850e+003,3.496489e+001
2.082778e+003,3.498443e+001
2.084707e+003,3.501979e+001
2.086635e+003,3.503078e+001
2.088564e+003,3.500797e+001
2.090492e+003,3.501089e+001
2.092421e+003,3.499886e+001
2.094349e+003,3.498285e+001
2.096278e+003,3.498714e+001
2.098206e+003,3.499903e+001
2.100135e+003,3.498627e+001
2.102063e+003,3.498641e+001
2.103992e+003,3.498893e+001
2.105920e+003,3.498383e+001
2.107849e+003,3.496635e+001
2.109777e+003,3.495359e+001
2.111706e+003,3.495180e+001
2.113634e+003,3.493886e+001
2.115563e+003,3.492316e+001
2.117491e+003,3.490000e+001
2.119420e+003,3.487624e+001
2.121348e+003,3.488790e+001
2.123277e+003,3.489268e+001
2.125205e+003,3.488976e+001
2.127134e+003,3.486681e+001
2.129062e+003,3.486357e+001
2.130991e+003,3.486383e+001
2.132919e+003,3.486342e+001
2.134848e+003,3.484737e+001
2.136776e+003,3.483230e+001
2.138705e+003,3.482517e+001
2.140633e+003,3.484766e+001
2.142562e+003,3.485601e+001
2.144490e+003,3.482745e+001
2.146419e+003,3.477293e+001
2.148347e+003,3.476216e+001
2.150276e+003,3.476674e+001
2.152204e+003,3.477465e+001
2.154133e+003,3.475658e+001
2.156061e+003,3.474715e+001
2.157990e+003,3.475044e+001
2.159918e+003,3.475195e+001
2.161847e+003,3.474456e+001
2.163775e+003,3.474378e+001
2.165704e+003,3.473488e+001
2.167632e+003,3.470421e+001
2.169561e+003,3.467665e+001
2.171489e+003,3.466574e+001
2.173418e+003,3.466353e+001
2.175346e+003,3.467408e+001
2.177275e+003,3.466336e+001
2.179203e+003,3.465988e+001
2.181132e+003,3.464200e+001
2.183060e+003,3.463880e+001
2.184989e+003,3.464000e+001
2.186917e+003,3.462026e+001
2.188846e+003,3.458288e+001
2.190774e+003,3.457486e+001
2.192703e+003,3.457728e+001
2.194631e+003,3.457165e+001
2.196560e+003,3.455035e+001
2.198488e+003,3.453897e+001
2.200417e+003,3.453483e+001
2.202345e+003,3.451793e+001
2.204274e+003,3.451817e+001
2.206202e+003,3.454124e+001
2.208131e+003,3.453120e+001
2.210059e+003,3.451980e+001
2.211988e+003,3.450365e+001
2.213916e+003,3.448041e+001
2.215845e+003,3.445825e+001
2.217773e+003,3.445141e+001
2.219702e+003,3.444305e+001
2.221630e+003,3.442514e+001
2.223559e+003,3.439432e+001
2.225487e+003,3.437483e+001
2.227416e+003,3.436315e+001
2.229344e+003,3.437075e+001
2.231273e+003,3.436597e+001
2.233201e+003,3.435366e+001
2.235130e+003,3.433667e+001
2.237058e+003,3.432493e+001
2.238987e+003,3.431437e+001
2.240915e+003,3.430554e+001
2.242844e+003,3.427825e+001
2.244772e+003,3.425357e+001
2.246701e+003,3.422189e+001
2.248629e+003,3.420607e+001
2.250558e+003,3.417311e+001
2.252486e+003,3.412244e+001
2.254415e+003,3.407694e+001
2.256343e+003,3.406470e+001
2.258272e+003,3.405038e+001
2.260200e+003,3.403115e+001
2.262129e+003,3.398580e+001
2.264057e+003,3.394691e+001
2.265986e+003,3.393413e+001
2.267914e+003,3.391100e+001
2.269843e+003,3.386961e+001
2.271771e+003,3.384706e+001
2.273700e+003,3.384150e+001
2.275628e+003,3.385809e+001
2.277557e+003,3.387633e+001
2.279485e+003,3.387569e+001
2.281414e+003,3.389820e+001
2.283342e+003,3.391060e+001
2.285271e+003,3.382040e+001
2.287199e+003,3.368861e+001
2.289128e+003,3.357163e+001
2.291056e+003,3.343853e+001
2.292985e+003,3.328436e+001
2.294913e+003,3.313710e+001
2.296842e+003,3.301057e+001
2.298770e+003,3.285230e+001
2.300699e+003,3.267789e+001
2.302627e+003,3.252769e+001
2.304556e+003,3.231666e+001
2.306484e+003,3.200263e+001
2.308413e+003,3.168329e+001
2.310341e+003,3.142455e+001
2.312270e+003,3.121683e+001
2.314198e+003,3.106813e+001
2.316127e+003,3.084396e+001
2.318055e+003,3.042838e+001
2.319984e+003,2.990602e+001
2.321912e+003,2.949341e+001
2.323841e+003,2.926650e+001
2.325769e+003,2.905679e+001
2.327698e+003,2.875924e+001
2.329626e+003,2.848807e+001
2.331555e+003,2.835898e+001
2.333483e+003,2.835327e+001
2.335412e+003,2.824148e+001
2.337340e+003,2.805428e+001
2.339269e+003,2.784690e+001
2.341197e+003,2.760888e+001
2.343126e+003,2.768509e+001
2.345054e+003,2.835029e+001
2.346983e+003,2.940823e+001
2.348911e+003,2.948815e+001
2.350840e+003,2.859725e+001
2.352768e+003,2.768103e+001
2.354697e+003,2.689793e+001
2.356625e+003,2.630432e+001
2.358554e+003,2.587373e+001
2.360482e+003,2.584796e+001
2.362411e+003,2.609874e+001
2.364339e+003,2.655160e+001
2.366268e+003,2.705064e+001
2.368196e+003,2.766931e+001
2.370125e+003,2.844343e+001
2.372053e+003,2.923203e+001
2.373982e+003,2.996044e+001
2.375910e+003,3.067019e+001
2.377839e+003,3.129868e+001
2.379767e+003,3.187352e+001
2.381696e+003,3.241077e+001
2.383624e+003,3.285942e+001
2.385553e+003,3.313891e+001
2.387481e+003,3.329983e+001
2.389410e+003,3.335118e+001
2.391338e+003,3.335798e+001
2.393267e+003,3.333982e+001
2.395195e+003,3.332738e+001
2.397124e+003,3.334212e+001
2.399052e+003,3.333900e+001
2.400981e+003,3.330569e+001
2.402909e+003,3.327251e+001
2.404838e+003,3.326079e+001
2.406766e+003,3.325143e+001
2.408695e+003,3.324050e+001
2.410623e+003,3.323161e+001
2.412552e+003,3.322601e+001
2.414480e+003,3.322650e+001
2.416409e+003,3.322012e+001
2.418337e+003,3.318596e+001
2.420266e+003,3.316374e+001
2.422194e+003,3.316200e+001
2.424123e+003,3.313657e+001
2.426051e+003,3.313560e+001
2.427980e+003,3.311260e+001
2.429908e+003,3.309236e+001
2.431837e+003,3.308471e+001
2.433765e+003,3.309447e+001
2.435694e+003,3.309100e+001
2.437622e+003,3.306219e+001
2.439551e+003,3.304569e+001
2.441479e+003,3.303006e+001
2.443408e+003,3.299400e+001
2.445336e+003,3.298024e+001
2.447265e+003,3.297381e+001
2.449193e+003,3.296860e+001
2.451122e+003,3.295176e+001
2.453050e+003,3.292520e+001
2.454979e+003,3.289736e+001
2.456907e+003,3.288863e+001
2.458836e+003,3.286798e+001
2.460764e+003,3.285389e+001
2.462693e+003,3.283409e+001
2.464621e+003,3.282198e+001
2.466550e+003,3.281693e+001
2.468478e+003,3.280206e+001
2.470406e+003,3.276981e+001
2.472335e+003,3.276542e+001
2.474264e+003,3.275977e+001
2.476192e+003,3.273149e+001
2.478121e+003,3.269146e+001
2.480049e+003,3.264851e+001
2.481978e+003,3.263266e+001
2.483906e+003,3.263844e+001
2.485834e+003,3.263435e+001
2.487763e+003,3.262251e+001
2.489692e+003,3.259469e+001
2.491620e+003,3.258947e+001
2.493549e+003,3.259202e+001
2.495477e+003,3.260386e+001
2.497406e+003,3.258473e+001
2.499334e+003,3.255874e+001
2.501262e+003,3.257883e+001
2.503191e+003,3.259032e+001
2.505120e+003,3.255592e+001
2.507048e+003,3.253864e+001
2.508977e+003,3.250519e+001
2.510905e+003,3.249379e+001
2.512833e+003,3.249539e+001
2.514762e+003,3.248633e+001
2.516690e+003,3.248258e+001
2.518619e+003,3.248126e+001
2.520548e+003,3.247282e+001
2.522476e+003,3.248315e+001
2.524405e+003,3.246430e+001
2.526333e+003,3.242455e+001
2.528261e+003,3.241185e+001
2.530190e+003,3.240601e+001
2.532119e+003,3.240211e+001
2.534047e+003,3.240691e+001
2.535976e+003,3.240744e+001
2.537904e+003,3.238133e+001
2.539833e+003,3.235452e+001
2.541761e+003,3.234633e+001
2.543689e+003,3.235872e+001
2.545618e+003,3.237636e+001
2.547547e+003,3.235035e+001
2.549475e+003,3.233694e+001
2.551404e+003,3.234988e+001
2.553332e+003,3.233749e+001
2.555260e+003,3.230150e+001
2.557189e+003,3.226220e+001
2.559117e+003,3.223633e+001
2.561046e+003,3.225567e+001
2.562975e+003,3.226054e+001
2.564903e+003,3.225452e+001
2.566832e+003,3.224914e+001
2.568760e+003,3.223015e+001
2.570688e+003,3.221036e+001
2.572617e+003,3.220234e+001
2.574545e+003,3.218637e+001
2.576474e+003,3.214073e+001
2.578403e+003,3.212821e+001
2.580331e+003,3.214357e+001
2.582260e+003,3.212752e+001
2.584188e+003,3.211872e+001
2.586116e+003,3.209483e+001
2.588045e+003,3.206114e+001
2.589973e+003,3.206008e+001
2.591902e+003,3.207254e+001
2.593831e+003,3.205593e+001
2.595759e+003,3.204459e+001
2.597688e+003,3.205699e+001
2.599616e+003,3.206622e+001
2.601544e+003,3.203475e+001
2.603473e+003,3.199921e+001
2.605401e+003,3.198116e+001
2.607330e+003,3.194714e+001
2.609259e+003,3.194599e+001
2.611187e+003,3.196504e+001
2.613115e+003,3.193958e+001
2.615044e+003,3.191933e+001
2.616972e+003,3.191675e+001
2.618901e+003,3.190571e+001
2.620830e+003,3.190897e+001
2.622758e+003,3.189063e+001
2.624687e+003,3.185639e+001
2.626615e+003,3.184741e+001
2.628543e+003,3.182474e+001
2.630472e+003,3.182543e+001
2.632400e+003,3.181669e+001
2.634329e+003,3.180118e+001
2.636258e+003,3.178665e+001
2.638186e+003,3.177528e+001
2.640115e+003,3.176146e+001
2.642043e+003,3.174858e+001
2.643971e+003,3.174329e+001
2.645900e+003,3.172010e+001
2.647828e+003,3.168801e+001
2.649757e+003,3.168323e+001
2.651686e+003,3.166506e+001
2.653614e+003,3.165653e+001
2.655542e+003,3.166096e+001
2.657471e+003,3.165466e+001
2.659399e+003,3.164121e+001
2.661328e+003,3.163178e+001
2.663256e+003,3.161815e+001
2.665185e+003,3.157587e+001
2.667114e+003,3.156748e+001
2.669042e+003,3.157871e+001
2.670970e+003,3.158078e+001
2.672899e+003,3.158484e+001
2.674827e+003,3.155843e+001
2.676756e+003,3.153098e+001
2.678684e+003,3.152854e+001
2.680613e+003,3.151150e+001
2.682542e+003,3.149989e+001
2.684470e+003,3.149033e+001
2.686398e+003,3.148377e+001
2.688327e+003,3.147299e+001
2.690255e+003,3.147433e+001
2.692184e+003,3.145445e+001
2.694112e+003,3.141033e+001
2.696041e+003,3.140418e+001
2.697969e+003,3.141746e+001
2.699898e+003,3.140075e+001
2.701826e+003,3.137410e+001
2.703755e+003,3.138911e+001
2.705683e+003,3.136659e+001
2.707612e+003,3.132287e+001
2.709540e+003,3.131210e+001
2.711469e+003,3.131181e+001
2.713397e+003,3.130816e+001
2.715326e+003,3.129333e+001
2.717254e+003,3.128581e+001
2.719183e+003,3.124892e+001
2.721111e+003,3.123115e+001
2.723040e+003,3.125697e+001
2.724969e+003,3.121128e+001
2.726897e+003,3.117208e+001
2.728825e+003,3.119639e+001
2.730754e+003,3.119978e+001
2.732682e+003,3.118667e+001
2.734611e+003,3.118858e+001
2.736539e+003,3.116406e+001
2.738468e+003,3.115335e+001
2.740396e+003,3.114486e+001
2.742325e+003,3.113190e+001
2.744253e+003,3.111518e+001
2.746182e+003,3.110695e+001
2.748110e+003,3.112448e+001
2.750039e+003,3.112508e+001
2.751967e+003,3.108046e+001
2.753896e+003,3.103488e+001
2.755824e+003,3.102028e+001
2.757753e+003,3.104087e+001
2.759681e+003,3.102559e+001
2.761610e+003,3.099955e+001
2.763538e+003,3.098498e+001
2.765467e+003,3.097961e+001
2.767395e+003,3.096635e+001
2.769324e+003,3.094927e+001
2.771252e+003,3.094176e+001
2.773181e+003,3.093431e+001
2.775109e+003,3.091117e+001
2.777038e+003,3.089478e+001
2.778966e+003,3.089413e+001
2.780895e+003,3.087347e+001
2.782823e+003,3.085960e+001
2.784752e+003,3.084546e+001
2.786680e+003,3.082885e+001
2.788609e+003,3.082457e+001
2.790537e+003,3.079661e+001
2.792466e+003,3.079411e+001
2.794394e+003,3.077641e+001
2.796323e+003,3.075183e+001
2.798251e+003,3.073111e+001
2.800180e+003,3.070270e+001
2.802108e+003,3.069636e+001
2.804037e+003,3.070538e+001
2.805965e+003,3.071229e+001
2.807894e+003,3.069730e+001
2.809822e+003,3.064562e+001
2.811751e+003,3.060229e+001
2.813679e+003,3.061323e+001
2.815608e+003,3.063165e+001
2.817536e+003,3.061171e+001
2.819465e+003,3.059818e+001
2.821393e+003,3.057834e+001
2.823322e+003,3.056781e+001
2.825250e+003,3.055294e+001
2.827179e+003,3.053415e+001
2.829107e+003,3.052839e+001
2.831036e+003,3.051703e+001
2.832964e+003,3.048186e+001
2.834893e+003,3.047059e+001
2.836821e+003,3.045348e+001
2.838750e+003,3.043598e+001
2.840678e+003,3.041888e+001
2.842607e+003,3.039371e+001
2.844535e+003,3.034330e+001
2.846464e+003,3.029646e+001
2.848392e+003,3.027836e+001
2.850321e+003,3.026121e+001
2.852249e+003,3.023655e+001
2.854178e+003,3.020056e+001
2.856106e+003,3.017362e+001
2.858035e+003,3.015411e+001
2.859963e+003,3.013463e+001
2.861892e+003,3.013349e+001
2.863820e+003,3.014642e+001
2.865749e+003,3.014064e+001
2.867677e+003,3.011237e+001
2.869606e+003,3.009090e+001
2.871534e+003,3.007444e+001
2.873463e+003,3.008255e+001
2.875391e+003,3.005658e+001
2.877320e+003,3.004313e+001
2.879248e+003,3.004950e+001
2.881177e+003,3.005760e+001
2.883105e+003,3.003602e+001
2.885034e+003,2.998443e+001
2.886962e+003,2.995256e+001
2.888891e+003,2.993538e+001
2.890819e+003,2.992431e+001
2.892748e+003,2.991145e+001
2.894676e+003,2.990442e+001
2.896605e+003,2.989349e+001
2.898533e+003,2.989249e+001
2.900462e+003,2.987955e+001
2.902390e+003,2.982710e+001
2.904319e+003,2.980498e+001
2.906247e+003,2.980186e+001
2.908176e+003,2.977454e+001
2.910104e+003,2.971425e+001
2.912033e+003,2.969714e+001
2.913961e+003,2.969446e+001
2.915890e+003,2.966713e+001
2.917818e+003,2.965291e+001
2.919747e+003,2.962073e+001
2.921675e+003,2.959371e+001
2.923604e+003,2.957793e+001
2.925532e+003,2.955264e+001
2.927461e+003,2.953774e+001
2.929389e+003,2.953883e+001
2.931318e+003,2.953946e+001
2.933246e+003,2.953292e+001
2.935175e+003,2.951967e+001
2.937103e+003,2.952883e+001
2.939032e+003,2.953389e+001
2.940960e+003,2.951450e+001
2.942889e+003,2.950468e+001
2.944817e+003,2.950386e+001
2.946746e+003,2.950428e+001
2.948674e+003,2.948315e+001
2.950603e+003,2.946808e+001
2.952531e+003,2.947209e+001
2.954460e+003,2.946880e+001
2.956388e+003,2.945548e+001
2.958317e+003,2.942620e+001
2.960245e+003,2.939066e+001
2.962174e+003,2.937276e+001
2.964102e+003,2.937687e+001
2.966031e+003,2.939168e+001
2.967959e+003,2.936150e+001
2.969888e+003,2.934727e+001
2.971816e+003,2.934304e+001
2.973745e+003,2.935761e+001
2.975673e+003,2.935697e+001
2.977602e+003,2.935205e+001
2.979530e+003,2.935323e+001
2.981459e+003,2.934256e+001
2.983387e+003,2.931502e+001
2.985316e+003,2.927055e+001
2.987244e+003,2.925040e+001
2.989173e+003,2.925191e+001
2.991101e+003,2.925254e+001
2.993030e+003,2.924097e+001
2.994958e+003,2.922565e+001
2.996887e+003,2.923264e+001
2.998815e+003,2.926711e+001
3.000744e+003,2.926146e+001
3.002672e+003,2.922957e+001
3.004601e+003,2.924546e+001
3.006529e+003,2.920604e+001
3.008458e+003,2.915742e+001
3.010386e+003,2.915730e+001
3.012315e+003,2.914841e+001
3.014243e+003,2.912752e+001
3.016172e+003,2.915939e+001
3.018100e+003,2.915212e+001
3.020029e+003,2.911826e+001
3.021957e+003,2.913398e+001
3.023886e+003,2.915281e+001
3.025814e+003,2.913397e+001
3.027743e+003,2.908880e+001
3.029671e+003,2.904063e+001
3.031600e+003,2.904974e+001
3.033528e+003,2.903145e+001
3.035457e+003,2.899243e+001
3.037385e+003,2.896780e+001
3.039314e+003,2.896720e+001
3.041242e+003,2.896750e+001
3.043171e+003,2.895581e+001
3.045099e+003,2.893268e+001
3.047028e+003,2.890917e+001
3.048956e+003,2.891346e+001
3.050885e+003,2.890550e+001
3.052813e+003,2.888922e+001
3.054742e+003,2.886287e+001
3.056670e+003,2.886766e+001
3.058599e+003,2.887112e+001
3.060527e+003,2.883924e+001
3.062456e+003,2.877076e+001
3.064384e+003,2.876186e+001
3.066313e+003,2.878577e+001
3.068241e+003,2.879517e+001
3.070170e+003,2.877912e+001
3.072098e+003,2.875883e+001
3.074027e+003,2.872352e+001
3.075955e+003,2.869272e+001
3.077884e+003,2.868438e+001
3.079812e+003,2.868869e+001
3.081741e+003,2.866259e+001
3.083669e+003,2.863293e+001
3.085598e+003,2.862686e+001
3.087526e+003,2.861113e+001
3.089455e+003,2.858231e+001
3.091383e+003,2.858615e+001
3.093312e+003,2.857553e+001
3.095240e+003,2.855877e+001
3.097169e+003,2.851887e+001
3.099097e+003,2.848800e+001
3.101026e+003,2.850639e+001
3.102954e+003,2.848513e+001
3.104883e+003,2.842905e+001
3.106811e+003,2.843377e+001
3.108740e+003,2.843297e+001
3.110668e+003,2.842109e+001
3.112597e+003,2.839763e+001
3.114525e+003,2.835336e+001
3.116454e+003,2.833356e+001
3.118382e+003,2.832957e+001
3.120311e+003,2.830062e+001
3.122239e+003,2.830472e+001
3.124167e+003,2.832077e+001
3.126096e+003,2.829926e+001
3.128025e+003,2.825723e+001
3.129953e+003,2.820191e+001
3.131882e+003,2.816995e+001
3.133810e+003,2.816759e+001
3.135739e+003,2.815008e+001
3.137667e+003,2.811715e+001
3.139595e+003,2.808617e+001
3.141524e+003,2.807001e+001
3.143453e+003,2.812607e+001
3.145381e+003,2.807599e+001
3.147310e+003,2.801256e+001
3.149238e+003,2.799479e+001
3.151167e+003,2.799365e+001
3.153095e+003,2.797044e+001
3.155023e+003,2.794732e+001
3.156952e+003,2.792656e+001
3.158881e+003,2.790797e+001
3.160809e+003,2.790893e+001
3.162738e+003,2.788449e+001
3.164666e+003,2.785052e+001
3.166594e+003,2.786724e+001
3.168523e+003,2.782347e+001
3.170452e+003,2.776358e+001
3.172380e+003,2.776157e+001
3.174309e+003,2.777608e+001
3.176237e+003,2.774386e+001
3.178166e+003,2.772871e+001
3.180094e+003,2.766990e+001
3.182022e+003,2.762664e+001
3.183951e+003,2.761952e+001
3.185880e+003,2.759628e+001
3.187808e+003,2.755709e+001
3.189737e+003,2.753141e+001
3.191665e+003,2.753125e+001
3.193594e+003,2.750965e+001
3.195522e+003,2.749496e+001
3.197450e+003,2.749230e+001
3.199379e+003,2.741959e+001
3.201308e+003,2.737958e+001
3.203236e+003,2.740851e+001
3.205165e+003,2.739394e+001
3.207093e+003,2.732454e+001
3.209021e+003,2.730832e+001
3.210950e+003,2.733199e+001
3.212878e+003,2.730059e+001
3.214807e+003,2.722608e+001
3.216736e+003,2.715493e+001
3.218664e+003,2.714963e+001
3.220593e+003,2.717263e+001
3.222521e+003,2.718432e+001
3.224449e+003,2.715506e+001
3.226378e+003,2.711447e+001
3.228306e+003,2.707496e+001
3.230235e+003,2.705258e+001
3.232164e+003,2.703023e+001
3.234092e+003,2.698073e+001
3.236021e+003,2.695608e+001
3.237949e+003,2.692297e+001
3.239877e+003,2.688331e+001
3.241806e+003,2.686241e+001
3.243734e+003,2.683070e+001
3.245663e+003,2.683328e+001
3.247592e+003,2.680518e+001
3.249520e+003,2.677687e+001
3.251448e+003,2.672359e+001
3.253377e+003,2.671910e+001
3.255305e+003,2.672478e+001
3.257234e+003,2.665634e+001
3.259162e+003,2.659324e+001
3.261091e+003,2.657831e+001
3.263020e+003,2.652966e+001
3.264948e+003,2.651414e+001
3.266876e+003,2.649075e+001
3.268805e+003,2.643415e+001
3.270733e+003,2.640663e+001
3.272662e+003,2.642251e+001
3.274591e+003,2.643861e+001
3.276519e+003,2.639126e+001
3.278448e+003,2.634420e+001
3.280376e+003,2.630321e+001
3.282304e+003,2.624905e+001
3.284233e+003,2.620722e+001
3.286161e+003,2.620015e+001
3.288090e+003,2.615450e+001
3.290019e+003,2.611679e+001
3.291947e+003,2.610034e+001
3.293875e+003,2.605774e+001
3.295804e+003,2.605619e+001
3.297732e+003,2.606398e+001
3.299661e+003,2.599159e+001
3.301589e+003,2.594037e+001
3.303518e+003,2.597614e+001
3.305447e+003,2.600163e+001
3.307375e+003,2.600403e+001
3.309303e+003,2.601695e+001
3.311232e+003,2.598954e+001
3.313160e+003,2.596530e+001
3.315089e+003,2.593594e+001
3.317017e+003,2.589510e+001
3.318946e+003,2.592729e+001
3.320875e+003,2.592582e+001
3.322803e+003,2.588612e+001
3.324731e+003,2.584178e+001
3.326660e+003,2.582297e+001
3.328588e+003,2.582348e+001
3.330517e+003,2.580045e+001
3.332445e+003,2.579092e+001
3.334374e+003,2.579514e+001
3.336302e+003,2.578048e+001
3.338231e+003,2.574464e+001
3.340159e+003,2.574130e+001
3.342088e+003,2.574833e+001
3.344016e+003,2.572600e+001
3.345945e+003,2.570967e+001
3.347873e+003,2.568412e+001
3.349802e+003,2.561064e+001
3.351730e+003,2.558067e+001
3.353659e+003,2.558088e+001
3.355587e+003,2.557691e+001
3.357516e+003,2.552880e+001
3.359444e+003,2.547548e+001
3.361373e+003,2.548742e+001
3.363302e+003,2.549287e+001
3.365230e+003,2.546474e+001
3.367158e+003,2.547396e+001
3.369087e+003,2.547949e+001
3.371015e+003,2.542180e+001
3.372944e+003,2.535968e+001
3.374872e+003,2.532660e+001
3.376801e+003,2.533523e+001
3.378729e+003,2.535641e+001
3.380658e+003,2.534790e+001
3.382586e+003,2.531562e+001
3.384515e+003,2.530701e+001
3.386443e+003,2.526906e+001
3.388372e+003,2.520234e+001
3.390300e+003,2.520041e+001
3.392229e+003,2.523528e+001
3.394157e+003,2.522169e+001
3.396086e+003,2.518114e+001
3.398014e+003,2.518337e+001
3.399943e+003,2.515843e+001
3.401871e+003,2.512222e+001
3.403800e+003,2.510258e+001
3.405728e+003,2.509277e+001
3.407657e+003,2.507489e+001
3.409585e+003,2.509272e+001
3.411514e+003,2.504630e+001
3.413442e+003,2.499090e+001
3.415371e+003,2.497924e+001
3.417299e+003,2.497286e+001
3.419228e+003,2.491592e+001
3.421156e+003,2.494699e+001
3.423085e+003,2.495661e+001
3.425013e+003,2.486480e+001
3.426942e+003,2.483703e+001
3.428870e+003,2.485073e+001
3.430799e+003,2.484942e+001
3.432727e+003,2.484445e+001
3.434656e+003,2.484731e+001
3.436584e+003,2.490977e+001
3.438513e+003,2.482003e+001
3.440441e+003,2.476242e+001
3.442370e+003,2.483789e+001
3.444298e+003,2.475581e+001
3.446227e+003,2.476851e+001
3.448155e+003,2.488808e+001
3.450084e+003,2.484432e+001
3.452012e+003,2.482664e+001
3.453941e+003,2.479011e+001
3.455869e+003,2.472906e+001
3.457798e+003,2.472022e+001
3.459726e+003,2.472220e+001
3.461655e+003,2.475592e+001
3.463583e+003,2.468758e+001
3.465512e+003,2.461076e+001
3.467440e+003,2.462094e+001
3.469369e+003,2.456981e+001
3.471297e+003,2.454855e+001
3.473226e+003,2.452129e+001
3.475154e+003,2.455361e+001
3.477083e+003,2.449636e+001
3.479011e+003,2.448933e+001
3.480940e+003,2.455849e+001
3.482868e+003,2.457976e+001
3.484797e+003,2.452762e+001
3.486725e+003,2.457735e+001
3.488654e+003,2.462962e+001
3.490582e+003,2.461013e+001
3.492511e+003,2.457673e+001
3.494439e+003,2.457669e+001
3.496368e+003,2.465711e+001
3.498296e+003,2.465476e+001
3.500225e+003,2.459259e+001
3.502153e+003,2.474346e+001
3.504082e+003,2.486925e+001
3.506010e+003,2.472930e+001
3.507939e+003,2.469140e+001
3.509867e+003,2.483879e+001
3.511796e+003,2.480879e+001
3.513724e+003,2.475990e+001
3.515653e+003,2.476229e+001
3.517581e+003,2.482068e+001
3.519510e+003,2.477386e+001
3.521438e+003,2.473539e+001
3.523367e+003,2.490582e+001
3.525295e+003,2.492755e+001
3.527224e+003,2.499127e+001
3.529152e+003,2.504621e+001
3.531081e+003,2.495782e+001
3.533009e+003,2.485771e+001
3.534938e+003,2.479637e+001
3.536866e+003,2.485806e+001
3.538795e+003,2.484419e+001
3.540723e+003,2.480774e+001
3.542652e+003,2.478675e+001
3.544580e+003,2.494434e+001
3.546509e+003,2.506845e+001
3.548437e+003,2.493450e+001
3.550366e+003,2.474427e+001
3.552294e+003,2.487614e+001
3.554223e+003,2.485367e+001
3.556151e+003,2.475645e+001
3.558080e+003,2.474841e+001
3.560008e+003,2.488238e+001
3.561937e+003,2.495606e+001
3.563865e+003,2.487237e+001
3.565794e+003,2.502084e+001
3.567722e+003,2.561302e+001
3.569651e+003,2.536597e+001
3.571579e+003,2.508157e+001
3.573508e+003,2.505144e+001
3.575436e+003,2.509820e+001
3.577365e+003,2.512342e+001
3.579293e+003,2.519817e+001
3.581222e+003,2.516716e+001
3.583150e+003,2.509500e+001
3.585079e+003,2.503149e+001
3.587007e+003,2.547302e+001
3.588936e+003,2.563896e+001
3.590864e+003,2.519147e+001
3.592793e+003,2.502351e+001
3.594721e+003,2.524244e+001
3.596650e+003,2.531584e+001
3.598578e+003,2.526113e+001
3.600507e+003,2.535776e+001
3.602435e+003,2.530592e+001
3.604364e+003,2.506770e+001
3.606292e+003,2.502817e+001
3.608221e+003,2.545402e+001
3.610149e+003,2.555194e+001
3.612078e+003,2.554008e+001
3.614006e+003,2.573909e+001
3.615935e+003,2.540789e+001
3.617863e+003,2.552652e+001
3.619792e+003,2.594671e+001
3.621720e+003,2.563845e+001
3.623649e+003,2.530457e+001
3.625577e+003,2.514050e+001
3.627506e+003,2.518929e+001
3.629434e+003,2.632078e+001
3.631363e+003,2.582072e+001
3.633291e+003,2.556314e+001
3.635220e+003,2.560802e+001
3.637148e+003,2.554736e+001
3.639077e+003,2.555342e+001
3.641005e+003,2.551432e+001
3.642934e+003,2.559645e+001
3.644862e+003,2.534453e+001
3.646791e+003,2.542830e+001
3.648719e+003,2.629897e+001
3.650648e+003,2.686938e+001
3.652576e+003,2.610436e+001
3.654505e+003,2.551413e+001
3.656433e+003,2.588149e+001
3.658362e+003,2.585751e+001
3.660290e+003,2.571691e+001
3.662219e+003,2.565014e+001
3.664147e+003,2.559228e+001
3.666076e+003,2.539199e+001
3.668004e+003,2.522894e+001
3.669933e+003,2.608870e+001
3.671861e+003,2.605969e+001
3.673790e+003,2.543196e+001
3.675718e+003,2.668965e+001
3.677647e+003,2.639108e+001
3.679575e+003,2.602664e+001
3.681504e+003,2.576402e+001
3.683432e+003,2.560583e+001
3.685361e+003,2.546977e+001
3.687289e+003,2.543890e+001
3.689218e+003,2.622560e+001
3.691146e+003,2.630200e+001
3.693075e+003,2.582307e+001
3.695003e+003,2.557681e+001
3.696932e+003,2.562657e+001
3.698860e+003,2.547820e+001
3.700789e+003,2.556041e+001
3.702717e+003,2.579364e+001
3.704646e+003,2.564683e+001
3.706574e+003,2.551905e+001
3.708503e+003,2.539017e+001
3.710431e+003,2.583494e+001
3.712360e+003,2.642686e+001
3.714288e+003,2.606397e+001
3.716217e+003,2.563889e+001
3.718145e+003,2.559630e+001
3.720074e+003,2.559513e+001
3.722002e+003,2.567430e+001
3.723931e+003,2.561349e+001
3.725859e+003,2.563537e+001
3.727788e+003,2.564759e+001
3.729716e+003,2.527548e+001
3.731645e+003,2.538742e+001
3.733573e+003,2.561208e+001
3.735502e+003,2.622807e+001
3.737430e+003,2.624469e+001
3.739359e+003,2.591404e+001
3.741287e+003,2.561858e+001
3.743216e+003,2.539544e+001
3.745144e+003,2.656080e+001
3.747073e+003,2.607866e+001
3.749001e+003,2.574240e+001
3.750930e+003,2.652716e+001
3.752858e+003,2.677581e+001
3.754787e+003,2.618456e+001
3.756715e+003,2.588799e+001
3.758644e+003,2.601789e+001
3.760572e+003,2.618937e+001
3.762500e+003,2.582568e+001
3.764429e+003,2.574831e+001
3.766358e+003,2.592704e+001
3.768286e+003,2.577123e+001
3.770215e+003,2.612598e+001
3.772143e+003,2.591882e+001
3.774072e+003,2.570273e+001
3.776000e+003,2.561099e+001
3.777928e+003,2.558389e+001
3.779857e+003,2.593636e+001
3.781786e+003,2.576095e+001
3.783714e+003,2.576254e+001
3.785643e+003,2.597610e+001
3.787571e+003,2.580311e+001
3.789500e+003,2.577558e+001
3.791428e+003,2.577009e+001
3.793356e+003,2.557602e+001
3.795285e+003,2.547809e+001
3.797214e+003,2.583644e+001
3.799142e+003,2.555574e+001
3.801071e+003,2.602887e+001
3.802999e+003,2.633282e+001
3.804927e+003,2.570790e+001
3.806856e+003,2.608574e+001
3.808785e+003,2.603199e+001
3.810713e+003,2.567682e+001
3.812642e+003,2.543854e+001
3.814570e+003,2.542088e+001
3.816499e+003,2.607975e+001
3.818427e+003,2.563473e+001
3.820355e+003,2.589644e+001
3.822284e+003,2.641975e+001
3.824213e+003,2.575634e+001
3.826141e+003,2.575334e+001
3.828070e+003,2.573772e+001
3.829998e+003,2.539799e+001
3.831927e+003,2.567987e+001
3.833855e+003,2.574524e+001
3.835783e+003,2.558169e+001
3.837712e+003,2.586853e+001
3.839641e+003,2.636731e+001
3.841569e+003,2.611997e+001
3.843498e+003,2.598737e+001
3.845426e+003,2.577789e+001
3.847354e+003,2.544982e+001
3.849283e+003,2.527277e+001
3.851211e+003,2.512475e+001
3.853140e+003,2.654777e+001
3.855069e+003,2.657284e+001
3.856997e+003,2.594537e+001
3.858926e+003,2.554346e+001
3.860854e+003,2.543599e+001
3.862782e+003,2.562358e+001
3.864711e+003,2.587429e+001
3.866639e+003,2.548824e+001
3.868568e+003,2.519426e+001
3.870497e+003,2.604953e+001
3.872425e+003,2.567431e+001
3.874354e+003,2.587663e+001
3.876282e+003,2.558016e+001
3.878210e+003,2.516555e+001
3.880139e+003,2.563037e+001
3.882067e+003,2.570700e+001
3.883996e+003,2.537315e+001
3.885925e+003,2.583266e+001
3.887853e+003,2.542637e+001
3.889781e+003,2.514527e+001
3.891710e+003,2.567986e+001
3.893638e+003,2.560192e+001
3.895567e+003,2.521304e+001
3.897495e+003,2.510917e+001
3.899424e+003,2.537928e+001
3.901353e+003,2.535729e+001
3.903281e+003,2.554456e+001
3.905209e+003,2.588357e+001
3.907138e+003,2.555989e+001
3.909066e+003,2.529268e+001
3.910995e+003,2.525130e+001
3.912924e+003,2.520163e+001
3.914852e+003,2.513829e+001
3.916781e+003,2.534909e+001
3.918709e+003,2.539507e+001
3.920637e+003,2.533515e+001
3.922566e+003,2.525833e+001
3.924494e+003,2.552953e+001
3.926423e+003,2.546844e+001
3.928352e+003,2.518122e+001
3.930280e+003,2.518479e+001
3.932208e+003,2.533088e+001
3.934137e+003,2.530519e+001
3.936065e+003,2.514351e+001
3.937994e+003,2.518209e+001
3.939922e+003,2.509034e+001
3.941851e+003,2.513251e+001
3.943780e+003,2.523301e+001
3.945708e+003,2.509286e+001
3.947636e+003,2.516596e+001
3.949565e+003,2.530262e+001
3.951493e+003,2.528055e+001
3.953422e+003,2.521814e+001
3.955350e+003,2.520655e+001
3.957279e+003,2.524082e+001
3.959208e+003,2.521729e+001
3.961136e+003,2.520719e+001
3.963064e+003,2.514958e+001
3.964993e+003,2.503813e+001
3.966921e+003,2.508089e+001
3.968850e+003,2.511751e+001
3.970778e+003,2.501832e+001
3.972707e+003,2.499620e+001
3.974635e+003,2.508136e+001
3.976564e+003,2.511412e+001
3.978492e+003,2.508765e+001
3.980421e+003,2.502999e+001
3.982349e+003,2.500872e+001
3.984278e+003,2.498592e+001
3.986206e+003,2.497086e+001
3.988135e+003,2.493553e+001
3.990063e+003,2.496673e+001
3.991992e+003,2.501509e+001
3.993920e+003,2.496674e+001
3.995849e+003,2.494515e+001
3.997777e+003,2.495861e+001
3.999706e+003,2.494866e+001
