3.991992e+002,5.734652e+001
4.011277e+002,6.061001e+001
4.030562e+002,6.155402e+001
4.049847e+002,6.232594e+001
4.069132e+002,6.365573e+001
4.088417e+002,6.428368e+001
4.107702e+002,6.434015e+001
4.126987e+002,6.434512e+001
4.146272e+002,6.428661e+001
4.165557e+002,6.457849e+001
4.184842e+002,6.445905e+001
4.204127e+002,6.224125e+001
4.223412e+002,6.172216e+001
4.242697e+002,6.178935e+001
4.261982e+002,6.124887e+001
4.281267e+002,5.969445e+001
4.300552e+002,5.906817e+001
4.319837e+002,5.847231e+001
4.339122e+002,5.765091e+001
4.358407e+002,5.655062e+001
4.377692e+002,5.535349e+001
4.396977e+002,5.455684e+001
4.416262e+002,5.341345e+001
4.435547e+002,5.202129e+001
4.454832e+002,5.062114e+001
4.474117e+002,4.951850e+001
4.493401e+002,4.811514e+001
4.512686e+002,4.575029e+001
4.531971e+002,4.365022e+001
4.551256e+002,4.242448e+001
4.570541e+002,4.088326e+001
4.589826e+002,3.920898e+001
4.609111e+002,3.883022e+001
4.628396e+002,3.899641e+001
4.647681e+002,3.873545e+001
4.666966e+002,3.923402e+001
4.686251e+002,4.014852e+001
4.705536e+002,4.101631e+001
4.724821e+002,4.255536e+001
4.744106e+002,4.456763e+001
4.763391e+002,4.605984e+001
4.782676e+002,4.725358e+001
4.801961e+002,4.849487e+001
4.821246e+002,4.969505e+001
4.840531e+002,5.040862e+001
4.859816e+002,5.069688e+001
4.879101e+002,5.124833e+001
4.898386e+002,5.183976e+001
4.917671e+002,5.210694e+001
4.936956e+002,5.211850e+001
4.956241e+002,5.190752e+001
4.975526e+002,5.186569e+001
4.994811e+002,5.172582e+001
5.014096e+002,5.133406e+001
5.033381e+002,5.076395e+001
5.052666e+002,5.029585e+001
5.071951e+002,4.993947e+001
5.091236e+002,4.907126e+001
5.110521e+002,4.794000e+001
5.129806e+002,4.699091e+001
5.149091e+002,4.618982e+001
5.168376e+002,4.504741e+001
5.187661e+002,4.380749e+001
5.206946e+002,4.313478e+001
5.226231e+002,4.221434e+001
5.245516e+002,4.090063e+001
5.264801e+002,3.939787e+001
5.284086e+002,3.780289e+001
5.303371e+002,3.625382e+001
5.322656e+002,3.490521e+001
5.341941e+002,3.350074e+001
5.361226e+002,3.193019e+001
5.380511e+002,3.036494e+001
5.399796e+002,2.910862e+001
5.419081e+002,2.836504e+001
5.438365e+002,2.735592e+001
5.457651e+002,2.641655e+001
5.476936e+002,2.532565e+001
5.496221e+002,2.457535e+001
5.515506e+002,2.433816e+001
5.534791e+002,2.448953e+001
5.554076e+002,2.459575e+001
5.573361e+002,2.473058e+001
5.592646e+002,2.519661e+001
5.611931e+002,2.561151e+001
5.631216e+002,2.580744e+001
5.650500e+002,2.596653e+001
5.669786e+002,2.636096e+001
5.689070e+002,2.730489e+001
5.708356e+002,2.781521e+001
5.727640e+002,2.813726e+001
5.746926e+002,2.915289e+001
5.766210e+002,3.054029e+001
5.785496e+002,3.181543e+001
5.804780e+002,3.346725e+001
5.824066e+002,3.541719e+001
5.843350e+002,3.751924e+001
5.862635e+002,3.945362e+001
5.881920e+002,4.139192e+001
5.901205e+002,4.318892e+001
5.920490e+002,4.507249e+001
5.939775e+002,4.673588e+001
5.959060e+002,4.811389e+001
5.978345e+002,4.942719e+001
5.997631e+002,5.069616e+001
6.016915e+002,5.190044e+001
6.036201e+002,5.316480e+001
6.055485e+002,5.422669e+001
6.074771e+002,5.511884e+001
6.094055e+002,5.590396e+001
6.113340e+002,5.669257e+001
6.132625e+002,5.753059e+001
6.151910e+002,5.828444e+001
6.171195e+002,5.925244e+001
6.190480e+002,6.023246e+001
6.209765e+002,6.097335e+001
6.229050e+002,6.155175e+001
6.248335e+002,6.214735e+001
6.267620e+002,6.292162e+001
6.286905e+002,6.358019e+001
6.306190e+002,6.415183e+001
6.325475e+002,6.468098e+001
6.344760e+002,6.517574e+001
6.364045e+002,6.567101e+001
6.383330e+002,6.595679e+001
6.402615e+002,6.616053e+001
6.421900e+002,6.628223e+001
6.441185e+002,6.629317e+001
6.460470e+002,6.612993e+001
6.479755e+002,6.574018e+001
6.499040e+002,6.520597e+001
6.518325e+002,6.461162e+001
6.537610e+002,6.392185e+001
6.556895e+002,6.309631e+001
6.576180e+002,6.231446e+001
6.595465e+002,6.166699e+001
6.614750e+002,6.117608e+001
6.634035e+002,6.091884e+001
6.653320e+002,6.087309e+001
6.672605e+002,6.085286e+001
6.691890e+002,6.104395e+001
6.711175e+002,6.146567e+001
6.730460e+002,6.187453e+001
6.749745e+002,6.225735e+001
6.769030e+002,6.272847e+001
6.788315e+002,6.324089e+001
6.807599e+002,6.365047e+001
6.826885e+002,6.393271e+001
6.846169e+002,6.415037e+001
6.865455e+002,6.442973e+001
6.884739e+002,6.475850e+001
6.904025e+002,6.511865e+001
6.923309e+002,6.548395e+001
6.942595e+002,6.575687e+001
6.961880e+002,6.601825e+001
6.981165e+002,6.625565e+001
7.000450e+002,6.657271e+001
7.019734e+002,6.698130e+001
7.039020e+002,6.744228e+001
7.058304e+002,6.784236e+001
7.077590e+002,6.827014e+001
7.096874e+002,6.872746e+001
7.116160e+002,6.909753e+001
7.135444e+002,6.943424e+001
7.154730e+002,6.986103e+001
7.174014e+002,7.033196e+001
7.193300e+002,7.078509e+001
7.212584e+002,7.111910e+001
7.231870e+002,7.142616e+001
7.251154e+002,7.171812e+001
7.270439e+002,7.210881e+001
7.289724e+002,7.252158e+001
7.309009e+002,7.291837e+001
7.328294e+002,7.335679e+001
7.347579e+002,7.391617e+001
7.366864e+002,7.449130e+001
7.386149e+002,7.511913e+001
7.405434e+002,7.576720e+001
7.424719e+002,7.643925e+001
7.444004e+002,7.706435e+001
7.463289e+002,7.763013e+001
7.482574e+002,7.810709e+001
7.501859e+002,7.861441e+001
7.521144e+002,7.924271e+001
7.540429e+002,7.996391e+001
7.559714e+002,8.059515e+001
7.578999e+002,8.122183e+001
7.598284e+002,8.184982e+001
7.617569e+002,8.242879e+001
7.636854e+002,8.301294e+001
7.656139e+002,8.376869e+001
7.675424e+002,8.456402e+001
7.694709e+002,8.535870e+001
7.713994e+002,8.602479e+001
7.733279e+002,8.669153e+001
7.752564e+002,8.735494e+001
7.771849e+002,8.809265e+001
7.791134e+002,8.882648e+001
7.810419e+002,8.957992e+001
7.829704e+002,9.027614e+001
7.848989e+002,9.087469e+001
7.868274e+002,9.138734e+001
7.887559e+002,9.195951e+001
7.906844e+002,9.256599e+001
7.926129e+002,9.325008e+001
7.945414e+002,9.383631e+001
7.964699e+002,9.434399e+001
7.983984e+002,9.475423e+001
8.003269e+002,9.517991e+001
8.022554e+002,9.564351e+001
8.041839e+002,9.619016e+001
8.061124e+002,9.668292e+001
8.080409e+002,9.710152e+001
8.099694e+002,9.741746e+001
8.118979e+002,9.774482e+001
8.138264e+002,9.806320e+001
8.157549e+002,9.844391e+001
8.176833e+002,9.878996e+001
8.196119e+002,9.909904e+001
8.215403e+002,9.926884e+001
8.234689e+002,9.938184e+001
8.253973e+002,9.947993e+001
8.273259e+002,9.966322e+001
8.292543e+002,9.984788e+001
8.311829e+002,1.000000e+002
8.331113e+002,9.998075e+001
8.350399e+002,9.989626e+001
8.369683e+002,9.973192e+001
8.388969e+002,9.961642e+001
8.408253e+002,9.940160e+001
8.427538e+002,9.888871e+001
8.446824e+002,9.780568e+001
8.466108e+002,9.669897e+001
8.485394e+002,9.642599e+001
8.504678e+002,9.703001e+001
8.523964e+002,9.763560e+001
8.543248e+002,9.782516e+001
8.562534e+002,9.757748e+001
8.581818e+002,9.697713e+001
8.601104e+002,9.600707e+001
8.620388e+002,9.482082e+001
8.639673e+002,9.371917e+001
8.658958e+002,9.326534e+001
8.678243e+002,9.347586e+001
8.697528e+002,9.386958e+001
8.716813e+002,9.395824e+001
8.736098e+002,9.372189e+001
8.755383e+002,9.318630e+001
8.774668e+002,9.244531e+001
8.793953e+002,9.148940e+001
8.813238e+002,9.049596e+001
8.832523e+002,8.950711e+001
8.851808e+002,8.846968e+001
8.871093e+002,8.732009e+001
8.890378e+002,8.611951e+001
8.909663e+002,8.478361e+001
8.928948e+002,8.330569e+001
8.948233e+002,8.160071e+001
8.967518e+002,7.978127e+001
8.986803e+002,7.788369e+001
9.006088e+002,7.592178e+001
9.025373e+002,7.385908e+001
9.044658e+002,7.173387e+001
9.063943e+002,6.947713e+001
9.083228e+002,6.710576e+001
9.102513e+002,6.462874e+001
9.121798e+002,6.210775e+001
9.141083e+002,5.952839e+001
9.160368e+002,5.685440e+001
9.179653e+002,5.416849e+001
9.198938e+002,5.140200e+001
9.218223e+002,4.862761e+001
9.237508e+002,4.594463e+001
9.256793e+002,4.340147e+001
9.276078e+002,4.092149e+001
9.295363e+002,3.851310e+001
9.314648e+002,3.628886e+001
9.333932e+002,3.420592e+001
9.353218e+002,3.213269e+001
9.372502e+002,3.017839e+001
9.391788e+002,2.832307e+001
9.411072e+002,2.661537e+001
9.430358e+002,2.516284e+001
9.449643e+002,2.395559e+001
9.468928e+002,2.260504e+001
9.488213e+002,2.129011e+001
9.507498e+002,2.000599e+001
9.526783e+002,1.886734e+001
9.546068e+002,1.774583e+001
9.565353e+002,1.722736e+001
9.584637e+002,1.654674e+001
9.603923e+002,1.596460e+001
9.623207e+002,1.552328e+001
9.642493e+002,1.526402e+001
9.661777e+002,1.449534e+001
9.681063e+002,1.394178e+001
9.700347e+002,1.370751e+001
9.719633e+002,1.369021e+001
9.738917e+002,1.320529e+001
9.758203e+002,1.252652e+001
9.777487e+002,1.232945e+001
9.796772e+002,1.238676e+001
9.816057e+002,1.179548e+001
9.835342e+002,1.165090e+001
9.854627e+002,1.173417e+001
9.873912e+002,1.184861e+001
9.893197e+002,1.129093e+001
9.912482e+002,1.079355e+001
9.931768e+002,1.033263e+001
9.951052e+002,1.061686e+001
9.970338e+002,1.056675e+001
9.989622e+002,1.073871e+001
1.000891e+003,1.000000e+001
1.002819e+003,1.011115e+001
1.004748e+003,1.021328e+001
1.006676e+003,1.032596e+001
1.008605e+003,1.036531e+001
1.010533e+003,1.058315e+001
1.012462e+003,1.102945e+001
1.014390e+003,1.166946e+001
1.016319e+003,1.168779e+001
1.018247e+003,1.228830e+001
1.020176e+003,1.304823e+001
1.022104e+003,1.370846e+001
1.024033e+003,1.403961e+001
1.025961e+003,1.471460e+001
1.027890e+003,1.518189e+001
1.029818e+003,1.566584e+001
1.031747e+003,1.605643e+001
1.033675e+003,1.693065e+001
1.035604e+003,1.750719e+001
1.037532e+003,1.788653e+001
1.039461e+003,1.819066e+001
1.041389e+003,1.843923e+001
1.043318e+003,1.871268e+001
1.045246e+003,1.935851e+001
1.047175e+003,1.970955e+001
1.049103e+003,2.019145e+001
1.051032e+003,2.067807e+001
1.052960e+003,2.121001e+001
1.054889e+003,2.159883e+001
1.056817e+003,2.206354e+001
1.058746e+003,2.265364e+001
1.060674e+003,2.344012e+001
1.062603e+003,2.413302e+001
1.064531e+003,2.491819e+001
1.066460e+003,2.578539e+001
1.068388e+003,2.656513e+001
1.070317e+003,2.719198e+001
1.072245e+003,2.806449e+001
1.074174e+003,2.895798e+001
1.076102e+003,2.968741e+001
1.078031e+003,3.027713e+001
1.079959e+003,3.092035e+001
1.081888e+003,3.145427e+001
1.083816e+003,3.204364e+001
1.085745e+003,3.251890e+001
1.087673e+003,3.301503e+001
1.089602e+003,3.335798e+001
1.091530e+003,3.370726e+001
1.093459e+003,3.406081e+001
1.095387e+003,3.447133e+001
1.097316e+003,3.478717e+001
1.099244e+003,3.516029e+001
1.101173e+003,3.564858e+001
1.103101e+003,3.618285e+001
1.105030e+003,3.663833e+001
1.106958e+003,3.715932e+001
1.108887e+003,3.763281e+001
1.110815e+003,3.820326e+001
1.112744e+003,3.882573e+001
1.114672e+003,3.951935e+001
1.116601e+003,4.012360e+001
1.118529e+003,4.081985e+001
1.120458e+003,4.156136e+001
1.122386e+003,4.226061e+001
1.124315e+003,4.296396e+001
1.126243e+003,4.376184e+001
1.128172e+003,4.464543e+001
1.130100e+003,4.553743e+001
1.132029e+003,4.634512e+001
1.133957e+003,4.719060e+001
1.135886e+003,4.795736e+001
1.137814e+003,4.874593e+001
1.139743e+003,4.956540e+001
1.141671e+003,5.040475e+001
1.143600e+003,5.120954e+001
1.145528e+003,5.196595e+001
1.147457e+003,5.268928e+001
1.149385e+003,5.344724e+001
1.151314e+003,5.415781e+001
1.153242e+003,5.488846e+001
1.155171e+003,5.564154e+001
1.157099e+003,5.632935e+001
1.159028e+003,5.695563e+001
1.160956e+003,5.759672e+001
1.162885e+003,5.821954e+001
1.164813e+003,5.883052e+001
1.166742e+003,5.942301e+001
1.168670e+003,6.001749e+001
1.170599e+003,6.060322e+001
1.172527e+003,6.114990e+001
1.174456e+003,6.166389e+001
1.176384e+003,6.220836e+001
1.178313e+003,6.281978e+001
1.180241e+003,6.345472e+001
1.182170e+003,6.398270e+001
1.184098e+003,6.441874e+001
1.186027e+003,6.484132e+001
1.187955e+003,6.525981e+001
1.189884e+003,6.572674e+001
1.191812e+003,6.622306e+001
1.193741e+003,6.671062e+001
1.195669e+003,6.713835e+001
1.197598e+003,6.751608e+001
1.199526e+003,6.785416e+001
1.201455e+003,6.822916e+001
1.203383e+003,6.865797e+001
1.205312e+003,6.911370e+001
1.207240e+003,6.952348e+001
1.209169e+003,6.988206e+001
1.211097e+003,7.021971e+001
1.213026e+003,7.055379e+001
1.214954e+003,7.090807e+001
1.216883e+003,7.130107e+001
1.218811e+003,7.167941e+001
1.220740e+003,7.202596e+001
1.222668e+003,7.234052e+001
1.224597e+003,7.260936e+001
1.226525e+003,7.288219e+001
1.228453e+003,7.319558e+001
1.230382e+003,7.354099e+001
1.232311e+003,7.387753e+001
1.234239e+003,7.416174e+001
1.236167e+003,7.441147e+001
1.238096e+003,7.464285e+001
1.240025e+003,7.493350e+001
1.241953e+003,7.526076e+001
1.243882e+003,7.558876e+001
1.245810e+003,7.587392e+001
1.247739e+003,7.613190e+001
1.249667e+003,7.634000e+001
1.251596e+003,7.655884e+001
1.253524e+003,7.681491e+001
1.255453e+003,7.713687e+001
1.257381e+003,7.743530e+001
1.259310e+003,7.767641e+001
1.261238e+003,7.785735e+001
1.263167e+003,7.806194e+001
1.265095e+003,7.827929e+001
1.267024e+003,7.855399e+001
1.268952e+003,7.881570e+001
1.270880e+003,7.906541e+001
1.272809e+003,7.925613e+001
1.274738e+003,7.942527e+001
1.276666e+003,7.957758e+001
1.278594e+003,7.980383e+001
1.280523e+003,8.005404e+001
1.282452e+003,8.030341e+001
1.284380e+003,8.049839e+001
1.286308e+003,8.065651e+001
1.288237e+003,8.076608e+001
1.290166e+003,8.092326e+001
1.292094e+003,8.111615e+001
1.294022e+003,8.135683e+001
1.295951e+003,8.157156e+001
1.297880e+003,8.172779e+001
1.299808e+003,8.180695e+001
1.301736e+003,8.190083e+001
1.303665e+003,8.202384e+001
1.305594e+003,8.220786e+001
1.307522e+003,8.237659e+001
1.309450e+003,8.251975e+001
1.311379e+003,8.258211e+001
1.313307e+003,8.258926e+001
1.315236e+003,8.263470e+001
1.317164e+003,8.275009e+001
1.319093e+003,8.282825e+001
1.321021e+003,8.294205e+001
1.322950e+003,8.300336e+001
1.324878e+003,8.299642e+001
1.326807e+003,8.294994e+001
1.328735e+003,8.294204e+001
1.330664e+003,8.294028e+001
1.332592e+003,8.295855e+001
1.334521e+003,8.290097e+001
1.336449e+003,8.276415e+001
1.338378e+003,8.250822e+001
1.340307e+003,8.219866e+001
1.342235e+003,8.205583e+001
1.344163e+003,8.193644e+001
1.346092e+003,8.167411e+001
1.348021e+003,8.133276e+001
1.349949e+003,8.086215e+001
1.351877e+003,8.039038e+001
1.353806e+003,7.989951e+001
1.355734e+003,7.940721e+001
1.357663e+003,7.891386e+001
1.359591e+003,7.841138e+001
1.361520e+003,7.770898e+001
1.363448e+003,7.674120e+001
1.365377e+003,7.608498e+001
1.367305e+003,7.548984e+001
1.369234e+003,7.471292e+001
1.371162e+003,7.410163e+001
1.373091e+003,7.340604e+001
1.375019e+003,7.242152e+001
1.376948e+003,7.176241e+001
1.378876e+003,7.114836e+001
1.380805e+003,7.049249e+001
1.382733e+003,6.984334e+001
1.384662e+003,6.923362e+001
1.386590e+003,6.833391e+001
1.388519e+003,6.716320e+001
1.390447e+003,6.636385e+001
1.392376e+003,6.568665e+001
1.394304e+003,6.487703e+001
1.396233e+003,6.426328e+001
1.398161e+003,6.407011e+001
1.400090e+003,6.391240e+001
1.402018e+003,6.394865e+001
1.403947e+003,6.394300e+001
1.405875e+003,6.384859e+001
1.407804e+003,6.394620e+001
1.409732e+003,6.403662e+001
1.411661e+003,6.418697e+001
1.413589e+003,6.448273e+001
1.415518e+003,6.491166e+001
1.417446e+003,6.532304e+001
1.419375e+003,6.569503e+001
1.421303e+003,6.604934e+001
1.423232e+003,6.628548e+001
1.425160e+003,6.629259e+001
1.427089e+003,6.637776e+001
1.429017e+003,6.625003e+001
1.430946e+003,6.604684e+001
1.432874e+003,6.598254e+001
1.434803e+003,6.603024e+001
1.436731e+003,6.564560e+001
1.438660e+003,6.546783e+001
1.440588e+003,6.545548e+001
1.442517e+003,6.540184e+001
1.444445e+003,6.538142e+001
1.446374e+003,6.545378e+001
1.448302e+003,6.547836e+001
1.450231e+003,6.570462e+001
1.452159e+003,6.591339e+001
1.454088e+003,6.619259e+001
1.456016e+003,6.644867e+001
1.457945e+003,6.675581e+001
1.459873e+003,6.735452e+001
1.461802e+003,6.793247e+001
1.463730e+003,6.839697e+001
1.465659e+003,6.886155e+001
1.467587e+003,6.933583e+001
1.469516e+003,6.979980e+001
1.471444e+003,7.019333e+001
1.473373e+003,7.054282e+001
1.475301e+003,7.103677e+001
1.477230e+003,7.151392e+001
1.479158e+003,7.195044e+001
1.481087e+003,7.231691e+001
1.483015e+003,7.272197e+001
1.484944e+003,7.318725e+001
1.486872e+003,7.365067e+001
1.488801e+003,7.408834e+001
1.490729e+003,7.458179e+001
1.492658e+003,7.520178e+001
1.494586e+003,7.573873e+001
1.496515e+003,7.619651e+001
1.498443e+003,7.680969e+001
1.500372e+003,7.747791e+001
1.502300e+003,7.808947e+001
1.504229e+003,7.862760e+001
1.506157e+003,7.896146e+001
1.508086e+003,7.911094e+001
1.510014e+003,7.974479e+001
1.511943e+003,8.028016e+001
1.513871e+003,8.076657e+001
1.515800e+003,8.108101e+001
1.517728e+003,8.123467e+001
1.519657e+003,8.155330e+001
1.521585e+003,8.158453e+001
1.523514e+003,8.182603e+001
1.525442e+003,8.212794e+001
1.527371e+003,8.219113e+001
1.529299e+003,8.234386e+001
1.531228e+003,8.245402e+001
1.533156e+003,8.220741e+001
1.535085e+003,8.195906e+001
1.537013e+003,8.227313e+001
1.538942e+003,8.219857e+001
1.540870e+003,8.122372e+001
1.542799e+003,8.093605e+001
1.544727e+003,8.068370e+001
1.546656e+003,8.053121e+001
1.548584e+003,8.049640e+001
1.550513e+003,8.001632e+001
1.552441e+003,7.987767e+001
1.554370e+003,7.953274e+001
1.556298e+003,7.942260e+001
1.558227e+003,7.926374e+001
1.560155e+003,7.805302e+001
1.562084e+003,7.839764e+001
1.564012e+003,7.851677e+001
1.565941e+003,7.843100e+001
1.567869e+003,7.853658e+001
1.569798e+003,7.820016e+001
1.571726e+003,7.820211e+001
1.573655e+003,7.841345e+001
1.575583e+003,7.837759e+001
1.577512e+003,7.828545e+001
1.579440e+003,7.860764e+001
1.581369e+003,7.877975e+001
1.583297e+003,7.888784e+001
1.585226e+003,7.898940e+001
1.587154e+003,7.912283e+001
1.589083e+003,7.920113e+001
1.591011e+003,7.920190e+001
1.592940e+003,7.912110e+001
1.594868e+003,7.892817e+001
1.596797e+003,7.869294e+001
1.598725e+003,7.849612e+001
1.600654e+003,7.818499e+001
1.602582e+003,7.773171e+001
1.604511e+003,7.716639e+001
1.606439e+003,7.660028e+001
1.608368e+003,7.578458e+001
1.610296e+003,7.497091e+001
1.612225e+003,7.418050e+001
1.614153e+003,7.358945e+001
1.616082e+003,7.243320e+001
1.618010e+003,7.074183e+001
1.619939e+003,7.003605e+001
1.621867e+003,6.926798e+001
1.623796e+003,6.767004e+001
1.625724e+003,6.683644e+001
1.627653e+003,6.587264e+001
1.629581e+003,6.479686e+001
1.631510e+003,6.406723e+001
1.633438e+003,6.355395e+001
1.635367e+003,6.238789e+001
1.637295e+003,6.118044e+001
1.639224e+003,6.087642e+001
1.641152e+003,6.050389e+001
1.643081e+003,6.011068e+001
1.645009e+003,5.988584e+001
1.646938e+003,5.901051e+001
1.648866e+003,5.881009e+001
1.650795e+003,5.902559e+001
1.652723e+003,5.890751e+001
1.654652e+003,5.838167e+001
1.656580e+003,5.880524e+001
1.658509e+003,5.903631e+001
1.660437e+003,5.927853e+001
1.662366e+003,5.943542e+001
1.664294e+003,5.976889e+001
1.666223e+003,6.022330e+001
1.668151e+003,6.062281e+001
1.670080e+003,6.098408e+001
1.672008e+003,6.158529e+001
1.673937e+003,6.216279e+001
1.675865e+003,6.280595e+001
1.677794e+003,6.350122e+001
1.679722e+003,6.414730e+001
1.681651e+003,6.478982e+001
1.683579e+003,6.536377e+001
1.685508e+003,6.620708e+001
1.687436e+003,6.699969e+001
1.689365e+003,6.778345e+001
1.691293e+003,6.863947e+001
1.693222e+003,6.939153e+001
1.695150e+003,7.006751e+001
1.697079e+003,7.076640e+001
1.699007e+003,7.146011e+001
1.700936e+003,7.224475e+001
1.702864e+003,7.300481e+001
1.704793e+003,7.371464e+001
1.706721e+003,7.444069e+001
1.708650e+003,7.519647e+001
1.710578e+003,7.585725e+001
1.712507e+003,7.648024e+001
1.714435e+003,7.695218e+001
1.716364e+003,7.747033e+001
1.718292e+003,7.801778e+001
1.720221e+003,7.878059e+001
1.722149e+003,7.934660e+001
1.724078e+003,7.984557e+001
1.726006e+003,8.034250e+001
1.727935e+003,8.082951e+001
1.729863e+003,8.124250e+001
1.731792e+003,8.172351e+001
1.733720e+003,8.198862e+001
1.735649e+003,8.230559e+001
1.737577e+003,8.282327e+001
1.739506e+003,8.314034e+001
1.741434e+003,8.347919e+001
1.743363e+003,8.386877e+001
1.745291e+003,8.419278e+001
1.747220e+003,8.450425e+001
1.749148e+003,8.467603e+001
1.751077e+003,8.492397e+001
1.753005e+003,8.522617e+001
1.754934e+003,8.565712e+001
1.756862e+003,8.582229e+001
1.758791e+003,8.612441e+001
1.760719e+003,8.638206e+001
1.762648e+003,8.648862e+001
1.764576e+003,8.675551e+001
1.766505e+003,8.705770e+001
1.768433e+003,8.720264e+001
1.770362e+003,8.749252e+001
1.772290e+003,8.744305e+001
1.774219e+003,8.765358e+001
1.776147e+003,8.796205e+001
1.778076e+003,8.826196e+001
1.780004e+003,8.843738e+001
1.781933e+003,8.864268e+001
1.783861e+003,8.887814e+001
1.785790e+003,8.902673e+001
1.787718e+003,8.923519e+001
1.789647e+003,8.947218e+001
1.791575e+003,8.949728e+001
1.793504e+003,8.955091e+001
1.795432e+003,8.981656e+001
1.797361e+003,9.004613e+001
1.799289e+003,9.017590e+001
1.801218e+003,9.020355e+001
1.803146e+003,9.034146e+001
1.805075e+003,9.057344e+001
1.807003e+003,9.075070e+001
1.808932e+003,9.089648e+001
1.810860e+003,9.092457e+001
1.812789e+003,9.098303e+001
1.814717e+003,9.113831e+001
1.816646e+003,9.124550e+001
1.818574e+003,9.133382e+001
1.820503e+003,9.149464e+001
1.822431e+003,9.165787e+001
1.824360e+003,9.170989e+001
1.826288e+003,9.168217e+001
1.828217e+003,9.186980e+001
1.830145e+003,9.179015e+001
1.832074e+003,9.197989e+001
1.834002e+003,9.221391e+001
1.835931e+003,9.231709e+001
1.837859e+003,9.235876e+001
1.839788e+003,9.247606e+001
1.841716e+003,9.262254e+001
1.843645e+003,9.261572e+001
1.845573e+003,9.259826e+001
1.847502e+003,9.281689e+001
1.849430e+003,9.290893e+001
1.851359e+003,9.300767e+001
1.853287e+003,9.305128e+001
1.855216e+003,9.314406e+001
1.857144e+003,9.323150e+001
1.859073e+003,9.334196e+001
1.861001e+003,9.340950e+001
1.862930e+003,9.347695e+001
1.864858e+003,9.352902e+001
1.866786e+003,9.357206e+001
1.868715e+003,9.342115e+001
1.870644e+003,9.349495e+001
1.872572e+003,9.370398e+001
1.874500e+003,9.379469e+001
1.876429e+003,9.380274e+001
1.878358e+003,9.383039e+001
1.880286e+003,9.386192e+001
1.882215e+003,9.393733e+001
1.884143e+003,9.398724e+001
1.886072e+003,9.406747e+001
1.888000e+003,9.412490e+001
1.889929e+003,9.401875e+001
1.891857e+003,9.404700e+001
1.893786e+003,9.416000e+001
1.895714e+003,9.416006e+001
1.897643e+003,9.424698e+001
1.899571e+003,9.430491e+001
1.901500e+003,9.431990e+001
1.903428e+003,9.428555e+001
1.905357e+003,9.432361e+001
1.907285e+003,9.437845e+001
1.909214e+003,9.439616e+001
1.911142e+003,9.440409e+001
1.913071e+003,9.446731e+001
1.914999e+003,9.449015e+001
1.916927e+003,9.448347e+001
1.918856e+003,9.436430e+001
1.920785e+003,9.450214e+001
1.922713e+003,9.448476e+001
1.924641e+003,9.449004e+001
1.926570e+003,9.454981e+001
1.928499e+003,9.455457e+001
1.930427e+003,9.452837e+001
1.932355e+003,9.453905e+001
1.934284e+003,9.456313e+001
1.936213e+003,9.461909e+001
1.938141e+003,9.461599e+001
1.940069e+003,9.463670e+001
1.941998e+003,9.453306e+001
1.943927e+003,9.445029e+001
1.945855e+003,9.451572e+001
1.947783e+003,9.457952e+001
1.949712e+003,9.461546e+001
1.951641e+003,9.461160e+001
1.953569e+003,9.458057e+001
1.955497e+003,9.454208e+001
1.957426e+003,9.452821e+001
1.959354e+003,9.455437e+001
1.961283e+003,9.456741e+001
1.963211e+003,9.458710e+001
1.965140e+003,9.457157e+001
1.967068e+003,9.448692e+001
1.968997e+003,9.444092e+001
1.970925e+003,9.448167e+001
1.972854e+003,9.449082e+001
1.974782e+003,9.450908e+001
1.976711e+003,9.449029e+001
1.978639e+003,9.446133e+001
1.980568e+003,9.443645e+001
1.982496e+003,9.443903e+001
1.984425e+003,9.442954e+001
1.986354e+003,9.446220e+001
1.988282e+003,9.445621e+001
1.990210e+003,9.446025e+001
1.992139e+003,9.434412e+001
1.994068e+003,9.429206e+001
1.995996e+003,9.433857e+001
1.997924e+003,9.436772e+001
1.999853e+003,9.437910e+001
2.001781e+003,9.437247e+001
2.003710e+003,9.432931e+001
2.005638e+003,9.428545e+001
2.007567e+003,9.424208e+001
2.009495e+003,9.422688e+001
2.011424e+003,9.422931e+001
2.013352e+003,9.425819e+001
2.015281e+003,9.425220e+001
2.017209e+003,9.417587e+001
2.019138e+003,9.411332e+001
2.021066e+003,9.411195e+001
2.022995e+003,9.409507e+001
2.024923e+003,9.409251e+001
2.026852e+003,9.408817e+001
2.028780e+003,9.407629e+001
2.030709e+003,9.402391e+001
2.032637e+003,9.398013e+001
2.034566e+003,9.395482e+001
2.036494e+003,9.395438e+001
2.038423e+003,9.394772e+001
2.040351e+003,9.393135e+001
2.042280e+003,9.385683e+001
2.044208e+003,9.381137e+001
2.046137e+003,9.377641e+001
2.048065e+003,9.377003e+001
2.049994e+003,9.374632e+001
2.051922e+003,9.373640e+001
2.053851e+003,9.370151e+001
2.055779e+003,9.366276e+001
2.057708e+003,9.361297e+001
2.059636e+003,9.358612e+001
2.061565e+003,9.356908e+001
2.063493e+003,9.357616e+001
2.065422e+003,9.353519e+001
2.067350e+003,9.350189e+001
2.069279e+003,9.345966e+001
2.071207e+003,9.342055e+001
2.073136e+003,9.338499e+001
2.075064e+003,9.338248e+001
2.076993e+003,9.337352e+001
2.078921e+003,9.336451e+001
2.080850e+003,9.332262e+001
2.082778e+003,9.327478e+001
2.084707e+003,9.323463e+001
2.086635e+003,9.323722e+001
2.088564e+003,9.322995e+001
2.090492e+003,9.321490e+001
2.092421e+003,9.318458e+001
2.094349e+003,9.315760e+001
2.096278e+003,9.311632e+001
2.098206e+003,9.309841e+001
2.100135e+003,9.308469e+001
2.102063e+003,9.309846e+001
2.103992e+003,9.309293e+001
2.105920e+003,9.308384e+001
2.107849e+003,9.305667e+001
2.109777e+003,9.304900e+001
2.111706e+003,9.303973e+001
2.113634e+003,9.305492e+001
2.115563e+003,9.305094e+001
2.117491e+003,9.304689e+001
2.119420e+003,9.302171e+001
2.121348e+003,9.299442e+001
2.123277e+003,9.296862e+001
2.125205e+003,9.296970e+001
2.127134e+003,9.298318e+001
2.129062e+003,9.300525e+001
2.130991e+003,9.299079e+001
2.132919e+003,9.296037e+001
2.134848e+003,9.293566e+001
2.136776e+003,9.293233e+001
2.138705e+003,9.293468e+001
2.140633e+003,9.295790e+001
2.142562e+003,9.295670e+001
2.144490e+003,9.294147e+001
2.146419e+003,9.290616e+001
2.148347e+003,9.290427e+001
2.150276e+003,9.290572e+001
2.152204e+003,9.292807e+001
2.154133e+003,9.294106e+001
2.156061e+003,9.294389e+001
2.157990e+003,9.292260e+001
2.159918e+003,9.291132e+001
2.161847e+003,9.290347e+001
2.163775e+003,9.292329e+001
2.165704e+003,9.294656e+001
2.167632e+003,9.297290e+001
2.169561e+003,9.297056e+001
2.171489e+003,9.296798e+001
2.173418e+003,9.294881e+001
2.175346e+003,9.295982e+001
2.177275e+003,9.297350e+001
2.179203e+003,9.300451e+001
2.181132e+003,9.302248e+001
2.183060e+003,9.303649e+001
2.184989e+003,9.301243e+001
2.186917e+003,9.299427e+001
2.188846e+003,9.301488e+001
2.190774e+003,9.306723e+001
2.192703e+003,9.308932e+001
2.194631e+003,9.309914e+001
2.196560e+003,9.309956e+001
2.198488e+003,9.310777e+001
2.200417e+003,9.311201e+001
2.202345e+003,9.314536e+001
2.204274e+003,9.318441e+001
2.206202e+003,9.323063e+001
2.208131e+003,9.324207e+001
2.210059e+003,9.323719e+001
2.211988e+003,9.322352e+001
2.213916e+003,9.324902e+001
2.215845e+003,9.328664e+001
2.217773e+003,9.333505e+001
2.219702e+003,9.336974e+001
2.221630e+003,9.338773e+001
2.223559e+003,9.337448e+001
2.225487e+003,9.339474e+001
2.227416e+003,9.342839e+001
2.229344e+003,9.348139e+001
2.231273e+003,9.351461e+001
2.233201e+003,9.354348e+001
2.235130e+003,9.355432e+001
2.237058e+003,9.355219e+001
2.238987e+003,9.355304e+001
2.240915e+003,9.360382e+001
2.242844e+003,9.365580e+001
2.244772e+003,9.369681e+001
2.246701e+003,9.372110e+001
2.248629e+003,9.375097e+001
2.250558e+003,9.375699e+001
2.252486e+003,9.378629e+001
2.254415e+003,9.382172e+001
2.256343e+003,9.387309e+001
2.258272e+003,9.391483e+001
2.260200e+003,9.392737e+001
2.262129e+003,9.392555e+001
2.264057e+003,9.394697e+001
2.265986e+003,9.398142e+001
2.267914e+003,9.403388e+001
2.269843e+003,9.407643e+001
2.271771e+003,9.412837e+001
2.273700e+003,9.415598e+001
2.275628e+003,9.415591e+001
2.277557e+003,9.417507e+001
2.279485e+003,9.423045e+001
2.281414e+003,9.427858e+001
2.283342e+003,9.434438e+001
2.285271e+003,9.436621e+001
2.287199e+003,9.436499e+001
2.289128e+003,9.435761e+001
2.291056e+003,9.437395e+001
2.292985e+003,9.439138e+001
2.294913e+003,9.442972e+001
2.296842e+003,9.444432e+001
2.298770e+003,9.446709e+001
2.300699e+003,9.446030e+001
2.302627e+003,9.445335e+001
2.304556e+003,9.446812e+001
2.306484e+003,9.449173e+001
2.308413e+003,9.447243e+001
2.310341e+003,9.448045e+001
2.312270e+003,9.446255e+001
2.314198e+003,9.443080e+001
2.316127e+003,9.442000e+001
2.318055e+003,9.445622e+001
2.319984e+003,9.442998e+001
2.321912e+003,9.435805e+001
2.323841e+003,9.429913e+001
2.325769e+003,9.430566e+001
2.327698e+003,9.427845e+001
2.329626e+003,9.427706e+001
2.331555e+003,9.424956e+001
2.333483e+003,9.421303e+001
2.335412e+003,9.418462e+001
2.337340e+003,9.425000e+001
2.339269e+003,9.429082e+001
2.341197e+003,9.422583e+001
2.343126e+003,9.419297e+001
2.345054e+003,9.422099e+001
2.346983e+003,9.442178e+001
2.348911e+003,9.477115e+001
2.350840e+003,9.482416e+001
2.352768e+003,9.463231e+001
2.354697e+003,9.447279e+001
2.356625e+003,9.433795e+001
2.358554e+003,9.427756e+001
2.360482e+003,9.432028e+001
2.362411e+003,9.430768e+001
2.364339e+003,9.433369e+001
2.366268e+003,9.439865e+001
2.368196e+003,9.449931e+001
2.370125e+003,9.464522e+001
2.372053e+003,9.485672e+001
2.373982e+003,9.505270e+001
2.375910e+003,9.522445e+001
2.377839e+003,9.535007e+001
2.379767e+003,9.547815e+001
2.381696e+003,9.563109e+001
2.383624e+003,9.578886e+001
2.385553e+003,9.590870e+001
2.387481e+003,9.598352e+001
2.389410e+003,9.600332e+001
2.391338e+003,9.602576e+001
2.393267e+003,9.604694e+001
2.395195e+003,9.607011e+001
2.397124e+003,9.610432e+001
2.399052e+003,9.614015e+001
2.400981e+003,9.615673e+001
2.402909e+003,9.616732e+001
2.404838e+003,9.616321e+001
2.406766e+003,9.619038e+001
2.408695e+003,9.621339e+001
2.410623e+003,9.623522e+001
2.412552e+003,9.625434e+001
2.414480e+003,9.627038e+001
2.416409e+003,9.627065e+001
2.418337e+003,9.627723e+001
2.420266e+003,9.629929e+001
2.422194e+003,9.633570e+001
2.424123e+003,9.634713e+001
2.426051e+003,9.635455e+001
2.427980e+003,9.636142e+001
2.429908e+003,9.636848e+001
2.431837e+003,9.637145e+001
2.433765e+003,9.639593e+001
2.435694e+003,9.641661e+001
2.437622e+003,9.644006e+001
2.439551e+003,9.645396e+001
2.441479e+003,9.646501e+001
2.443408e+003,9.646165e+001
2.445336e+003,9.647416e+001
2.447265e+003,9.648728e+001
2.449193e+003,9.650434e+001
2.451122e+003,9.651428e+001
2.453050e+003,9.652233e+001
2.454979e+003,9.650593e+001
2.456907e+003,9.649973e+001
2.458836e+003,9.648833e+001
2.460764e+003,9.647980e+001
2.462693e+003,9.647694e+001
2.464621e+003,9.646926e+001
2.466550e+003,9.644188e+001
2.468478e+003,9.645760e+001
2.470406e+003,9.648668e+001
2.472335e+003,9.651219e+001
2.474264e+003,9.653176e+001
2.476192e+003,9.656409e+001
2.478121e+003,9.658914e+001
2.480049e+003,9.662232e+001
2.481978e+003,9.663857e+001
2.483906e+003,9.664922e+001
2.485834e+003,9.667905e+001
2.487763e+003,9.672357e+001
2.489692e+003,9.674277e+001
2.491620e+003,9.675170e+001
2.493549e+003,9.674190e+001
2.495477e+003,9.676038e+001
2.497406e+003,9.679189e+001
2.499334e+003,9.681999e+001
2.501262e+003,9.683175e+001
2.503191e+003,9.685662e+001
2.505120e+003,9.687270e+001
2.507048e+003,9.687263e+001
2.508977e+003,9.688224e+001
2.510905e+003,9.691203e+001
2.512833e+003,9.693923e+001
2.514762e+003,9.695625e+001
2.516690e+003,9.696281e+001
2.518619e+003,9.697931e+001
2.520548e+003,9.698158e+001
2.522476e+003,9.700808e+001
2.524405e+003,9.701581e+001
2.526333e+003,9.702293e+001
2.528261e+003,9.704641e+001
2.530190e+003,9.706751e+001
2.532119e+003,9.706335e+001
2.534047e+003,9.706934e+001
2.535976e+003,9.707816e+001
2.537904e+003,9.710406e+001
2.539833e+003,9.712413e+001
2.541761e+003,9.713640e+001
2.543689e+003,9.712663e+001
2.545618e+003,9.714008e+001
2.547547e+003,9.715023e+001
2.549475e+003,9.717335e+001
2.551404e+003,9.719164e+001
2.553332e+003,9.721450e+001
2.555260e+003,9.719895e+001
2.557189e+003,9.716740e+001
2.559117e+003,9.716171e+001
2.561046e+003,9.718722e+001
2.562975e+003,9.720843e+001
2.564903e+003,9.722217e+001
2.566832e+003,9.723036e+001
2.568760e+003,9.723061e+001
2.570688e+003,9.721524e+001
2.572617e+003,9.720529e+001
2.574545e+003,9.720433e+001
2.576474e+003,9.720554e+001
2.578403e+003,9.719643e+001
2.580331e+003,9.720202e+001
2.582260e+003,9.719225e+001
2.584188e+003,9.718105e+001
2.586116e+003,9.717556e+001
2.588045e+003,9.717609e+001
2.589973e+003,9.716842e+001
2.591902e+003,9.716622e+001
2.593831e+003,9.716408e+001
2.595759e+003,9.714043e+001
2.597688e+003,9.710785e+001
2.599616e+003,9.710482e+001
2.601544e+003,9.711733e+001
2.603473e+003,9.712136e+001
2.605401e+003,9.711255e+001
2.607330e+003,9.710339e+001
2.609259e+003,9.708714e+001
2.611187e+003,9.708830e+001
2.613115e+003,9.708075e+001
2.615044e+003,9.706863e+001
2.616972e+003,9.706111e+001
2.618901e+003,9.705497e+001
2.620830e+003,9.703127e+001
2.622758e+003,9.700618e+001
2.624687e+003,9.698438e+001
2.626615e+003,9.698721e+001
2.628543e+003,9.698900e+001
2.630472e+003,9.699277e+001
2.632400e+003,9.696309e+001
2.634329e+003,9.693517e+001
2.636258e+003,9.691634e+001
2.638186e+003,9.691688e+001
2.640115e+003,9.691380e+001
2.642043e+003,9.689571e+001
2.643971e+003,9.687687e+001
2.645900e+003,9.687226e+001
2.647828e+003,9.685052e+001
2.649757e+003,9.682292e+001
2.651686e+003,9.680017e+001
2.653614e+003,9.679729e+001
2.655542e+003,9.677976e+001
2.657471e+003,9.676229e+001
2.659399e+003,9.673772e+001
2.661328e+003,9.671697e+001
2.663256e+003,9.669215e+001
2.665185e+003,9.667352e+001
2.667114e+003,9.665211e+001
2.669042e+003,9.662949e+001
2.670970e+003,9.660666e+001
2.672899e+003,9.659214e+001
2.674827e+003,9.655662e+001
2.676756e+003,9.650695e+001
2.678684e+003,9.646284e+001
2.680613e+003,9.644398e+001
2.682542e+003,9.644315e+001
2.684470e+003,9.643289e+001
2.686398e+003,9.639581e+001
2.688327e+003,9.635585e+001
2.690255e+003,9.632349e+001
2.692184e+003,9.630859e+001
2.694112e+003,9.627819e+001
2.696041e+003,9.624823e+001
2.697969e+003,9.621450e+001
2.699898e+003,9.618155e+001
2.701826e+003,9.614883e+001
2.703755e+003,9.611942e+001
2.705683e+003,9.609719e+001
2.707612e+003,9.605510e+001
2.709540e+003,9.599400e+001
2.711469e+003,9.595652e+001
2.713397e+003,9.590972e+001
2.715326e+003,9.587789e+001
2.717254e+003,9.584155e+001
2.719183e+003,9.579905e+001
2.721111e+003,9.574558e+001
2.723040e+003,9.570165e+001
2.724969e+003,9.564281e+001
2.726897e+003,9.561810e+001
2.728825e+003,9.560648e+001
2.730754e+003,9.555927e+001
2.732682e+003,9.549742e+001
2.734611e+003,9.544630e+001
2.736539e+003,9.541222e+001
2.738468e+003,9.537553e+001
2.740396e+003,9.532091e+001
2.742325e+003,9.526295e+001
2.744253e+003,9.520413e+001
2.746182e+003,9.514434e+001
2.748110e+003,9.506303e+001
2.750039e+003,9.502286e+001
2.751967e+003,9.499542e+001
2.753896e+003,9.493681e+001
2.755824e+003,9.487325e+001
2.757753e+003,9.483238e+001
2.759681e+003,9.478632e+001
2.761610e+003,9.472102e+001
2.763538e+003,9.464927e+001
2.765467e+003,9.460970e+001
2.767395e+003,9.454787e+001
2.769324e+003,9.446999e+001
2.771252e+003,9.439129e+001
2.773181e+003,9.431705e+001
2.775109e+003,9.425278e+001
2.777038e+003,9.421499e+001
2.778966e+003,9.416291e+001
2.780895e+003,9.410293e+001
2.782823e+003,9.403920e+001
2.784752e+003,9.395172e+001
2.786680e+003,9.385816e+001
2.788609e+003,9.378481e+001
2.790537e+003,9.370259e+001
2.792466e+003,9.363588e+001
2.794394e+003,9.356063e+001
2.796323e+003,9.346223e+001
2.798251e+003,9.337881e+001
2.800180e+003,9.333765e+001
2.802108e+003,9.325895e+001
2.804037e+003,9.317735e+001
2.805965e+003,9.310298e+001
2.807894e+003,9.302446e+001
2.809822e+003,9.292789e+001
2.811751e+003,9.284241e+001
2.813679e+003,9.276009e+001
2.815608e+003,9.268203e+001
2.817536e+003,9.258458e+001
2.819465e+003,9.248315e+001
2.821393e+003,9.239237e+001
2.823322e+003,9.231149e+001
2.825250e+003,9.219768e+001
2.827179e+003,9.208553e+001
2.829107e+003,9.200655e+001
2.831036e+003,9.191684e+001
2.832964e+003,9.180598e+001
2.834893e+003,9.168885e+001
2.836821e+003,9.154769e+001
2.838750e+003,9.143114e+001
2.840678e+003,9.135094e+001
2.842607e+003,9.126961e+001
2.844535e+003,9.116543e+001
2.846464e+003,9.102818e+001
2.848392e+003,9.091248e+001
2.850321e+003,9.081173e+001
2.852249e+003,9.067091e+001
2.854178e+003,9.052255e+001
2.856106e+003,9.041840e+001
2.858035e+003,9.031917e+001
2.859963e+003,9.020991e+001
2.861892e+003,9.010802e+001
2.863820e+003,8.998254e+001
2.865749e+003,8.987251e+001
2.867677e+003,8.976288e+001
2.869606e+003,8.963892e+001
2.871534e+003,8.949918e+001
2.873463e+003,8.937142e+001
2.875391e+003,8.926273e+001
2.877320e+003,8.915479e+001
2.879248e+003,8.901585e+001
2.881177e+003,8.886842e+001
2.883105e+003,8.873144e+001
2.885034e+003,8.860056e+001
2.886962e+003,8.844633e+001
2.888891e+003,8.830246e+001
2.890819e+003,8.814595e+001
2.892748e+003,8.798285e+001
2.894676e+003,8.783736e+001
2.896605e+003,8.771400e+001
2.898533e+003,8.758035e+001
2.900462e+003,8.738908e+001
2.902390e+003,8.721248e+001
2.904319e+003,8.708574e+001
2.906247e+003,8.693398e+001
2.908176e+003,8.675973e+001
2.910104e+003,8.658098e+001
2.912033e+003,8.638686e+001
2.913961e+003,8.619626e+001
2.915890e+003,8.601524e+001
2.917818e+003,8.584227e+001
2.919747e+003,8.566302e+001
2.921675e+003,8.549105e+001
2.923604e+003,8.534230e+001
2.925532e+003,8.516133e+001
2.927461e+003,8.495236e+001
2.929389e+003,8.476891e+001
2.931318e+003,8.461839e+001
2.933246e+003,8.445821e+001
2.935175e+003,8.429131e+001
2.937103e+003,8.411427e+001
2.939032e+003,8.393127e+001
2.940960e+003,8.372683e+001
2.942889e+003,8.350876e+001
2.944817e+003,8.333544e+001
2.946746e+003,8.315927e+001
2.948674e+003,8.295995e+001
2.950603e+003,8.275867e+001
2.952531e+003,8.257549e+001
2.954460e+003,8.238321e+001
2.956388e+003,8.215699e+001
2.958317e+003,8.195325e+001
2.960245e+003,8.176510e+001
2.962174e+003,8.156934e+001
2.964102e+003,8.137878e+001
2.966031e+003,8.119530e+001
2.967959e+003,8.097281e+001
2.969888e+003,8.076033e+001
2.971816e+003,8.054914e+001
2.973745e+003,8.035927e+001
2.975673e+003,8.018894e+001
2.977602e+003,7.995316e+001
2.979530e+003,7.972308e+001
2.981459e+003,7.953679e+001
2.983387e+003,7.930103e+001
2.985316e+003,7.908772e+001
2.987244e+003,7.889387e+001
2.989173e+003,7.866190e+001
2.991101e+003,7.843245e+001
2.993030e+003,7.820645e+001
2.994958e+003,7.797157e+001
2.996887e+003,7.773797e+001
2.998815e+003,7.751436e+001
3.000744e+003,7.727402e+001
3.002672e+003,7.703151e+001
3.004601e+003,7.679811e+001
3.006529e+003,7.654809e+001
3.008458e+003,7.630147e+001
3.010386e+003,7.603700e+001
3.012315e+003,7.578145e+001
3.014243e+003,7.554276e+001
3.016172e+003,7.531853e+001
3.018100e+003,7.506417e+001
3.020029e+003,7.478813e+001
3.021957e+003,7.451820e+001
3.023886e+003,7.424939e+001
3.025814e+003,7.399564e+001
3.027743e+003,7.373024e+001
3.029671e+003,7.345960e+001
3.031600e+003,7.315446e+001
3.033528e+003,7.287539e+001
3.035457e+003,7.262377e+001
3.037385e+003,7.235553e+001
3.039314e+003,7.207613e+001
3.041242e+003,7.179196e+001
3.043171e+003,7.149737e+001
3.045099e+003,7.118747e+001
3.047028e+003,7.088268e+001
3.048956e+003,7.057492e+001
3.050885e+003,7.027129e+001
3.052813e+003,6.998677e+001
3.054742e+003,6.971238e+001
3.056670e+003,6.939954e+001
3.058599e+003,6.907724e+001
3.060527e+003,6.874348e+001
3.062456e+003,6.844701e+001
3.064384e+003,6.814631e+001
3.066313e+003,6.783777e+001
3.068241e+003,6.751794e+001
3.070170e+003,6.721746e+001
3.072098e+003,6.691862e+001
3.074027e+003,6.658186e+001
3.075955e+003,6.625505e+001
3.077884e+003,6.592724e+001
3.079812e+003,6.557584e+001
3.081741e+003,6.524154e+001
3.083669e+003,6.495621e+001
3.085598e+003,6.463815e+001
3.087526e+003,6.429314e+001
3.089455e+003,6.399595e+001
3.091383e+003,6.368523e+001
3.093312e+003,6.334154e+001
3.095240e+003,6.301201e+001
3.097169e+003,6.268639e+001
3.099097e+003,6.235813e+001
3.101026e+003,6.196057e+001
3.102954e+003,6.161701e+001
3.104883e+003,6.134923e+001
3.106811e+003,6.100368e+001
3.108740e+003,6.066487e+001
3.110668e+003,6.034127e+001
3.112597e+003,6.002692e+001
3.114525e+003,5.972943e+001
3.116454e+003,5.940960e+001
3.118382e+003,5.904869e+001
3.120311e+003,5.868378e+001
3.122239e+003,5.831907e+001
3.124167e+003,5.798461e+001
3.126096e+003,5.764625e+001
3.128025e+003,5.732490e+001
3.129953e+003,5.703045e+001
3.131882e+003,5.669849e+001
3.133810e+003,5.633913e+001
3.135739e+003,5.599395e+001
3.137667e+003,5.566057e+001
3.139595e+003,5.532860e+001
3.141524e+003,5.497924e+001
3.143453e+003,5.465240e+001
3.145381e+003,5.432236e+001
3.147310e+003,5.394436e+001
3.149238e+003,5.360357e+001
3.151167e+003,5.332080e+001
3.153095e+003,5.299136e+001
3.155023e+003,5.265759e+001
3.156952e+003,5.229808e+001
3.158881e+003,5.194515e+001
3.160809e+003,5.165502e+001
3.162738e+003,5.137775e+001
3.164666e+003,5.106360e+001
3.166594e+003,5.075220e+001
3.168523e+003,5.042818e+001
3.170452e+003,5.003825e+001
3.172380e+003,4.972461e+001
3.174309e+003,4.949456e+001
3.176237e+003,4.916375e+001
3.178166e+003,4.876811e+001
3.180094e+003,4.843191e+001
3.182022e+003,4.814288e+001
3.183951e+003,4.784268e+001
3.185880e+003,4.755164e+001
3.187808e+003,4.719736e+001
3.189737e+003,4.685137e+001
3.191665e+003,4.658268e+001
3.193594e+003,4.631896e+001
3.195522e+003,4.604889e+001
3.197450e+003,4.572081e+001
3.199379e+003,4.536298e+001
3.201308e+003,4.507806e+001
3.203236e+003,4.478141e+001
3.205165e+003,4.449609e+001
3.207093e+003,4.428944e+001
3.209021e+003,4.400450e+001
3.210950e+003,4.367292e+001
3.212878e+003,4.339774e+001
3.214807e+003,4.315397e+001
3.216736e+003,4.290620e+001
3.218664e+003,4.266576e+001
3.220593e+003,4.236139e+001
3.222521e+003,4.208307e+001
3.224449e+003,4.183245e+001
3.226378e+003,4.155078e+001
3.228306e+003,4.132475e+001
3.230235e+003,4.115110e+001
3.232164e+003,4.089778e+001
3.234092e+003,4.064820e+001
3.236021e+003,4.043948e+001
3.237949e+003,4.024337e+001
3.239877e+003,3.999850e+001
3.241806e+003,3.978207e+001
3.243734e+003,3.949059e+001
3.245663e+003,3.930656e+001
3.247592e+003,3.910974e+001
3.249520e+003,3.888440e+001
3.251448e+003,3.869040e+001
3.253377e+003,3.839615e+001
3.255305e+003,3.810781e+001
3.257234e+003,3.791127e+001
3.259162e+003,3.772129e+001
3.261091e+003,3.747409e+001
3.263020e+003,3.716544e+001
3.264948e+003,3.696876e+001
3.266876e+003,3.678645e+001
3.268805e+003,3.661230e+001
3.270733e+003,3.639443e+001
3.272662e+003,3.617812e+001
3.274591e+003,3.606363e+001
3.276519e+003,3.589310e+001
3.278448e+003,3.566738e+001
3.280376e+003,3.545231e+001
3.282304e+003,3.527880e+001
3.284233e+003,3.505243e+001
3.286161e+003,3.484141e+001
3.288090e+003,3.465055e+001
3.290019e+003,3.454403e+001
3.291947e+003,3.457074e+001
3.293875e+003,3.446561e+001
3.295804e+003,3.426883e+001
3.297732e+003,3.406630e+001
3.299661e+003,3.395774e+001
3.301589e+003,3.389719e+001
3.303518e+003,3.379856e+001
3.305447e+003,3.364173e+001
3.307375e+003,3.366243e+001
3.309303e+003,3.366488e+001
3.311232e+003,3.351793e+001
3.313160e+003,3.339857e+001
3.315089e+003,3.321300e+001
3.317017e+003,3.299480e+001
3.318946e+003,3.297813e+001
3.320875e+003,3.282722e+001
3.322803e+003,3.275106e+001
3.324731e+003,3.273035e+001
3.326660e+003,3.249353e+001
3.328588e+003,3.223867e+001
3.330517e+003,3.212112e+001
3.332445e+003,3.200933e+001
3.334374e+003,3.187487e+001
3.336302e+003,3.167826e+001
3.338231e+003,3.156421e+001
3.340159e+003,3.147086e+001
3.342088e+003,3.125391e+001
3.344016e+003,3.101398e+001
3.345945e+003,3.081072e+001
3.347873e+003,3.062862e+001
3.349802e+003,3.055522e+001
3.351730e+003,3.037584e+001
3.353659e+003,3.016907e+001
3.355587e+003,3.002115e+001
3.357516e+003,2.999253e+001
3.359444e+003,2.978447e+001
3.361373e+003,2.957788e+001
3.363302e+003,2.940566e+001
3.365230e+003,2.926968e+001
3.367158e+003,2.925289e+001
3.369087e+003,2.922099e+001
3.371015e+003,2.900109e+001
3.372944e+003,2.880355e+001
3.374872e+003,2.860412e+001
3.376801e+003,2.818025e+001
3.378729e+003,2.803836e+001
3.380658e+003,2.828345e+001
3.382586e+003,2.817404e+001
3.384515e+003,2.786847e+001
3.386443e+003,2.757942e+001
3.388372e+003,2.735557e+001
3.390300e+003,2.753598e+001
3.392229e+003,2.765294e+001
3.394157e+003,2.734375e+001
3.396086e+003,2.724090e+001
3.398014e+003,2.740750e+001
3.399943e+003,2.730722e+001
3.401871e+003,2.714953e+001
3.403800e+003,2.688799e+001
3.405728e+003,2.665987e+001
3.407657e+003,2.671962e+001
3.409585e+003,2.661505e+001
3.411514e+003,2.641460e+001
3.413442e+003,2.638651e+001
3.415371e+003,2.620946e+001
3.417299e+003,2.603207e+001
3.419228e+003,2.609299e+001
3.421156e+003,2.603004e+001
3.423085e+003,2.588070e+001
3.425013e+003,2.574630e+001
3.426942e+003,2.573166e+001
3.428870e+003,2.571877e+001
3.430799e+003,2.561263e+001
3.432727e+003,2.567747e+001
3.434656e+003,2.573930e+001
3.436584e+003,2.554406e+001
3.438513e+003,2.557409e+001
3.440441e+003,2.546833e+001
3.442370e+003,2.534908e+001
3.444298e+003,2.527872e+001
3.446227e+003,2.521373e+001
3.448155e+003,2.538993e+001
3.450084e+003,2.538998e+001
3.452012e+003,2.526094e+001
3.453941e+003,2.535991e+001
3.455869e+003,2.532854e+001
3.457798e+003,2.538074e+001
3.459726e+003,2.529058e+001
3.461655e+003,2.499251e+001
3.463583e+003,2.515183e+001
3.465512e+003,2.533563e+001
3.467440e+003,2.532227e+001
3.469369e+003,2.538454e+001
3.471297e+003,2.531289e+001
3.473226e+003,2.513133e+001
3.475154e+003,2.535761e+001
3.477083e+003,2.539544e+001
3.479011e+003,2.534270e+001
3.480940e+003,2.524725e+001
3.482868e+003,2.513733e+001
3.484797e+003,2.520623e+001
3.486725e+003,2.520556e+001
3.488654e+003,2.533375e+001
3.490582e+003,2.549163e+001
3.492511e+003,2.546202e+001
3.494439e+003,2.549329e+001
3.496368e+003,2.561942e+001
3.498296e+003,2.574713e+001
3.500225e+003,2.585075e+001
3.502153e+003,2.567675e+001
3.504082e+003,2.564565e+001
3.506010e+003,2.585177e+001
3.507939e+003,2.593997e+001
3.509867e+003,2.614353e+001
3.511796e+003,2.633837e+001
3.513724e+003,2.644112e+001
3.515653e+003,2.645525e+001
3.517581e+003,2.671378e+001
3.519510e+003,2.677040e+001
3.521438e+003,2.682307e+001
3.523367e+003,2.690589e+001
3.525295e+003,2.688599e+001
3.527224e+003,2.711944e+001
3.529152e+003,2.725667e+001
3.531081e+003,2.720120e+001
3.533009e+003,2.720862e+001
3.534938e+003,2.737555e+001
3.536866e+003,2.752085e+001
3.538795e+003,2.753125e+001
3.540723e+003,2.763983e+001
3.542652e+003,2.790825e+001
3.544580e+003,2.806206e+001
3.546509e+003,2.812440e+001
3.548437e+003,2.825854e+001
3.550366e+003,2.833393e+001
3.552294e+003,2.834168e+001
3.554223e+003,2.878165e+001
3.556151e+003,2.904501e+001
3.558080e+003,2.901231e+001
3.560008e+003,2.917046e+001
3.561937e+003,2.940413e+001
3.563865e+003,2.969088e+001
3.565794e+003,2.974910e+001
3.567722e+003,2.972887e+001
3.569651e+003,2.999410e+001
3.571579e+003,3.020872e+001
3.573508e+003,3.042321e+001
3.575436e+003,3.055101e+001
3.577365e+003,3.086960e+001
3.579293e+003,3.117831e+001
3.581222e+003,3.143624e+001
3.583150e+003,3.180589e+001
3.585079e+003,3.200857e+001
3.587007e+003,3.188180e+001
3.588936e+003,3.216624e+001
3.590864e+003,3.268428e+001
3.592793e+003,3.304072e+001
3.594721e+003,3.315317e+001
3.596650e+003,3.339538e+001
3.598578e+003,3.382073e+001
3.600507e+003,3.407198e+001
3.602435e+003,3.441621e+001
3.604364e+003,3.488353e+001
3.606292e+003,3.517349e+001
3.608221e+003,3.525183e+001
3.610149e+003,3.555095e+001
3.612078e+003,3.605458e+001
3.614006e+003,3.651431e+001
3.615935e+003,3.686942e+001
3.617863e+003,3.722385e+001
3.619792e+003,3.732996e+001
3.621720e+003,3.773648e+001
3.623649e+003,3.831180e+001
3.625577e+003,3.883908e+001
3.627506e+003,3.923914e+001
3.629434e+003,3.957262e+001
3.631363e+003,4.020597e+001
3.633291e+003,4.064395e+001
3.635220e+003,4.117668e+001
3.637148e+003,4.180539e+001
3.639077e+003,4.227300e+001
3.641005e+003,4.281919e+001
3.642934e+003,4.331296e+001
3.644862e+003,4.378288e+001
3.646791e+003,4.405617e+001
3.648719e+003,4.436785e+001
3.650648e+003,4.495874e+001
3.652576e+003,4.575414e+001
3.654505e+003,4.633517e+001
3.656433e+003,4.680240e+001
3.658362e+003,4.734324e+001
3.660290e+003,4.804721e+001
3.662219e+003,4.853209e+001
3.664147e+003,4.887121e+001
3.666076e+003,4.928776e+001
3.668004e+003,4.978592e+001
3.669933e+003,5.022032e+001
3.671861e+003,5.067468e+001
3.673790e+003,5.117940e+001
3.675718e+003,5.139553e+001
3.677647e+003,5.180376e+001
3.679575e+003,5.233591e+001
3.681504e+003,5.274609e+001
3.683432e+003,5.315063e+001
3.685361e+003,5.356104e+001
3.687289e+003,5.401173e+001
3.689218e+003,5.422646e+001
3.691146e+003,5.451221e+001
3.693075e+003,5.475066e+001
3.695003e+003,5.512271e+001
3.696932e+003,5.542669e+001
3.698860e+003,5.575622e+001
3.700789e+003,5.592844e+001
3.702717e+003,5.616994e+001
3.704646e+003,5.655395e+001
3.706574e+003,5.683123e+001
3.708503e+003,5.690662e+001
3.710431e+003,5.687047e+001
3.712360e+003,5.711022e+001
3.714288e+003,5.756082e+001
3.716217e+003,5.787798e+001
3.718145e+003,5.808512e+001
3.720074e+003,5.815170e+001
3.722002e+003,5.830927e+001
3.723931e+003,5.849727e+001
3.725859e+003,5.864708e+001
3.727788e+003,5.872991e+001
3.729716e+003,5.899026e+001
3.731645e+003,5.917193e+001
3.733573e+003,5.941128e+001
3.735502e+003,5.932185e+001
3.737430e+003,5.929134e+001
3.739359e+003,5.953574e+001
3.741287e+003,5.986345e+001
3.743216e+003,6.016065e+001
3.745144e+003,5.992572e+001
3.747073e+003,6.016702e+001
3.749001e+003,6.029585e+001
3.750930e+003,6.001431e+001
3.752858e+003,6.026597e+001
3.754787e+003,6.052275e+001
3.756715e+003,6.069361e+001
3.758644e+003,6.089769e+001
3.760572e+003,6.097326e+001
3.762500e+003,6.114241e+001
3.764429e+003,6.122449e+001
3.766358e+003,6.124298e+001
3.768286e+003,6.144042e+001
3.770215e+003,6.140387e+001
3.772143e+003,6.153795e+001
3.774072e+003,6.170274e+001
3.776000e+003,6.183525e+001
3.777928e+003,6.189547e+001
3.779857e+003,6.176957e+001
3.781786e+003,6.195896e+001
3.783714e+003,6.216165e+001
3.785643e+003,6.212920e+001
3.787571e+003,6.223863e+001
3.789500e+003,6.236227e+001
3.791428e+003,6.249379e+001
3.793356e+003,6.253253e+001
3.795285e+003,6.256733e+001
3.797214e+003,6.246353e+001
3.799142e+003,6.276130e+001
3.801071e+003,6.264947e+001
3.802999e+003,6.250331e+001
3.804927e+003,6.286656e+001
3.806856e+003,6.275301e+001
3.808785e+003,6.282205e+001
3.810713e+003,6.309462e+001
3.812642e+003,6.320019e+001
3.814570e+003,6.329660e+001
3.816499e+003,6.305776e+001
3.818427e+003,6.332792e+001
3.820355e+003,6.322675e+001
3.822284e+003,6.295944e+001
3.824213e+003,6.330035e+001
3.826141e+003,6.346297e+001
3.828070e+003,6.348864e+001
3.829998e+003,6.359193e+001
3.831927e+003,6.350970e+001
3.833855e+003,6.361691e+001
3.835783e+003,6.382090e+001
3.837712e+003,6.380409e+001
3.839641e+003,6.343567e+001
3.841569e+003,6.354338e+001
3.843498e+003,6.368938e+001
3.845426e+003,6.390152e+001
3.847354e+003,6.408965e+001
3.849283e+003,6.412567e+001
3.851211e+003,6.424688e+001
3.853140e+003,6.379795e+001
3.855069e+003,6.366656e+001
3.856997e+003,6.394943e+001
3.858926e+003,6.415605e+001
3.860854e+003,6.429172e+001
3.862782e+003,6.421642e+001
3.864711e+003,6.414037e+001
3.866639e+003,6.433526e+001
3.868568e+003,6.472908e+001
3.870497e+003,6.436069e+001
3.872425e+003,6.444913e+001
3.874354e+003,6.435235e+001
3.876282e+003,6.446952e+001
3.878210e+003,6.468943e+001
3.880139e+003,6.451623e+001
3.882067e+003,6.443094e+001
3.883996e+003,6.469035e+001
3.885925e+003,6.452164e+001
3.887853e+003,6.466467e+001
3.889781e+003,6.477493e+001
3.891710e+003,6.457442e+001
3.893638e+003,6.457639e+001
3.895567e+003,6.478217e+001
3.897495e+003,6.492634e+001
3.899424e+003,6.484532e+001
3.901353e+003,6.484086e+001
3.903281e+003,6.484789e+001
3.905209e+003,6.471082e+001
3.907138e+003,6.485646e+001
3.909066e+003,6.501155e+001
3.910995e+003,6.504073e+001
3.912924e+003,6.509310e+001
3.914852e+003,6.519241e+001
3.916781e+003,6.500156e+001
3.918709e+003,6.496852e+001
3.920637e+003,6.505526e+001
3.922566e+003,6.511093e+001
3.924494e+003,6.494865e+001
3.926423e+003,6.507629e+001
3.928352e+003,6.526759e+001
3.930280e+003,6.521638e+001
3.932208e+003,6.507118e+001
3.934137e+003,6.516731e+001
3.936065e+003,6.535431e+001
3.937994e+003,6.541857e+001
3.939922e+003,6.543606e+001
3.941851e+003,6.538857e+001
3.943780e+003,6.530977e+001
3.945708e+003,6.542254e+001
3.947636e+003,6.540245e+001
3.949565e+003,6.537480e+001
3.951493e+003,6.538829e+001
3.953422e+003,6.543160e+001
3.955350e+003,6.542078e+001
3.957279e+003,6.545139e+001
3.959208e+003,6.550861e+001
3.961136e+003,6.554943e+001
3.963064e+003,6.548984e+001
3.964993e+003,6.554510e+001
3.966921e+003,6.561855e+001
3.968850e+003,6.556045e+001
3.970778e+003,6.553320e+001
3.972707e+003,6.558937e+001
3.974635e+003,6.562189e+001
3.976564e+003,6.560714e+001
3.978492e+003,6.562663e+001
3.980421e+003,6.569392e+001
3.982349e+003,6.570621e+001
3.984278e+003,6.574133e+001
3.986206e+003,6.576257e+001
3.988135e+003,6.576788e+001
3.990063e+003,6.575368e+001
3.991992e+003,6.583437e+001
3.993920e+003,6.589402e+001
3.995849e+003,6.587568e+001
3.997777e+003,6.585001e+001
3.999706e+003,6.590036e+001
