3.991992e+002,1.000000e+002
4.011277e+002,9.575561e+001
4.030562e+002,9.206830e+001
4.049847e+002,8.756499e+001
4.069132e+002,8.301407e+001
4.088417e+002,7.662648e+001
4.107702e+002,7.020998e+001
4.126987e+002,6.506969e+001
4.146272e+002,6.120055e+001
4.165557e+002,5.810932e+001
4.184842e+002,5.432858e+001
4.204127e+002,4.848212e+001
4.223412e+002,4.640401e+001
4.242697e+002,4.489956e+001
4.261982e+002,4.420286e+001
4.281267e+002,4.387099e+001
4.300552e+002,4.442426e+001
4.319837e+002,4.494857e+001
4.339122e+002,4.468171e+001
4.358407e+002,4.415131e+001
4.377692e+002,4.424905e+001
4.396977e+002,4.387777e+001
4.416262e+002,4.316046e+001
4.435547e+002,4.257814e+001
4.454832e+002,4.294706e+001
4.474117e+002,4.221366e+001
4.493401e+002,4.104050e+001
4.512686e+002,3.963701e+001
4.531971e+002,3.734545e+001
4.551256e+002,3.425539e+001
4.570541e+002,3.111937e+001
4.589826e+002,2.749976e+001
4.609111e+002,2.501813e+001
4.628396e+002,2.285268e+001
4.647681e+002,2.206645e+001
4.666966e+002,2.204823e+001
4.686251e+002,2.325043e+001
4.705536e+002,2.491341e+001
4.724821e+002,2.727314e+001
4.744106e+002,2.986920e+001
4.763391e+002,3.267477e+001
4.782676e+002,3.519807e+001
4.801961e+002,3.759436e+001
4.821246e+002,3.939799e+001
4.840531e+002,4.122571e+001
4.859816e+002,4.279929e+001
4.879101e+002,4.452471e+001
4.898386e+002,4.646347e+001
4.917671e+002,4.901625e+001
4.936956e+002,5.179239e+001
4.956241e+002,5.459033e+001
4.975526e+002,5.776438e+001
4.994811e+002,6.089582e+001
5.014096e+002,6.344872e+001
5.033381e+002,6.549958e+001
5.052666e+002,6.706481e+001
5.071951e+002,6.877856e+001
5.091236e+002,6.975263e+001
5.110521e+002,7.049471e+001
5.129806e+002,7.152470e+001
5.149091e+002,7.263577e+001
5.168376e+002,7.323343e+001
5.187661e+002,7.346149e+001
5.206946e+002,7.418376e+001
5.226231e+002,7.490404e+001
5.245516e+002,7.527042e+001
5.264801e+002,7.581033e+001
5.284086e+002,7.637565e+001
5.303371e+002,7.686471e+001
5.322656e+002,7.688310e+001
5.341941e+002,7.691327e+001
5.361226e+002,7.742461e+001
5.380511e+002,7.760780e+001
5.399796e+002,7.698618e+001
5.419081e+002,7.611847e+001
5.438365e+002,7.529336e+001
5.457651e+002,7.385797e+001
5.476936e+002,7.143897e+001
5.496221e+002,6.847878e+001
5.515506e+002,6.477232e+001
5.534791e+002,6.025027e+001
5.554076e+002,5.577792e+001
5.573361e+002,5.255613e+001
5.592646e+002,5.126856e+001
5.611931e+002,5.149275e+001
5.631216e+002,5.275691e+001
5.650500e+002,5.510045e+001
5.669786e+002,5.804201e+001
5.689070e+002,6.077465e+001
5.708356e+002,6.289514e+001
5.727640e+002,6.465018e+001
5.746926e+002,6.640450e+001
5.766210e+002,6.781246e+001
5.785496e+002,6.843112e+001
5.804780e+002,6.884483e+001
5.824066e+002,6.935798e+001
5.843350e+002,6.946832e+001
5.862635e+002,6.886102e+001
5.881920e+002,6.801807e+001
5.901205e+002,6.706252e+001
5.920490e+002,6.521359e+001
5.939775e+002,6.238256e+001
5.959060e+002,5.940220e+001
5.978345e+002,5.688818e+001
5.997631e+002,5.496534e+001
6.016915e+002,5.394270e+001
6.036201e+002,5.401278e+001
6.055485e+002,5.499098e+001
6.074771e+002,5.619637e+001
6.094055e+002,5.723220e+001
6.113340e+002,5.816331e+001
6.132625e+002,5.906458e+001
6.151910e+002,5.929472e+001
6.171195e+002,5.885311e+001
6.190480e+002,5.842115e+001
6.209765e+002,5.814220e+001
6.229050e+002,5.787719e+001
6.248335e+002,5.807477e+001
6.267620e+002,5.894019e+001
6.286905e+002,6.035218e+001
6.306190e+002,6.164695e+001
6.325475e+002,6.243041e+001
6.344760e+002,6.289394e+001
6.364045e+002,6.330857e+001
6.383330e+002,6.312640e+001
6.402615e+002,6.253178e+001
6.421900e+002,6.198544e+001
6.441185e+002,6.148363e+001
6.460470e+002,6.048950e+001
6.479755e+002,5.926762e+001
6.499040e+002,5.809115e+001
6.518325e+002,5.693864e+001
6.537610e+002,5.508349e+001
6.556895e+002,5.280923e+001
6.576180e+002,5.028915e+001
6.595465e+002,4.760275e+001
6.614750e+002,4.459517e+001
6.634035e+002,4.185355e+001
6.653320e+002,3.967364e+001
6.672605e+002,3.698245e+001
6.691890e+002,3.422231e+001
6.711175e+002,3.403671e+001
6.730460e+002,3.326352e+001
6.749745e+002,3.230093e+001
6.769030e+002,3.150921e+001
6.788315e+002,3.109828e+001
6.807599e+002,3.074511e+001
6.826885e+002,3.046861e+001
6.846169e+002,3.022345e+001
6.865455e+002,3.012680e+001
6.884739e+002,3.019584e+001
6.904025e+002,3.055343e+001
6.923309e+002,3.083340e+001
6.942595e+002,3.108997e+001
6.961880e+002,3.134747e+001
6.981165e+002,3.173503e+001
7.000450e+002,3.226036e+001
7.019734e+002,3.312802e+001
7.039020e+002,3.443959e+001
7.058304e+002,3.608898e+001
7.077590e+002,3.756327e+001
7.096874e+002,3.862846e+001
7.116160e+002,3.939180e+001
7.135444e+002,3.998119e+001
7.154730e+002,4.035499e+001
7.174014e+002,4.053284e+001
7.193300e+002,4.095021e+001
7.212584e+002,4.196957e+001
7.231870e+002,4.316789e+001
7.251154e+002,4.410411e+001
7.270439e+002,4.504853e+001
7.289724e+002,4.602771e+001
7.309009e+002,4.688524e+001
7.328294e+002,4.754685e+001
7.347579e+002,4.819246e+001
7.366864e+002,4.889359e+001
7.386149e+002,4.952729e+001
7.405434e+002,4.993419e+001
7.424719e+002,5.040253e+001
7.444004e+002,5.095966e+001
7.463289e+002,5.146149e+001
7.482574e+002,5.172884e+001
7.501859e+002,5.207177e+001
7.521144e+002,5.255594e+001
7.540429e+002,5.294802e+001
7.559714e+002,5.309470e+001
7.578999e+002,5.334653e+001
7.598284e+002,5.378126e+001
7.617569e+002,5.406295e+001
7.636854e+002,5.408511e+001
7.656139e+002,5.430173e+001
7.675424e+002,5.467801e+001
7.694709e+002,5.491074e+001
7.713994e+002,5.493084e+001
7.733279e+002,5.511245e+001
7.752564e+002,5.545777e+001
7.771849e+002,5.571165e+001
7.791134e+002,5.570621e+001
7.810419e+002,5.585964e+001
7.829704e+002,5.617388e+001
7.848989e+002,5.634830e+001
7.868274e+002,5.626677e+001
7.887559e+002,5.641464e+001
7.906844e+002,5.668216e+001
7.926129e+002,5.674847e+001
7.945414e+002,5.663075e+001
7.964699e+002,5.659925e+001
7.983984e+002,5.667523e+001
8.003269e+002,5.668216e+001
8.022554e+002,5.656743e+001
8.041839e+002,5.656841e+001
8.061124e+002,5.664344e+001
8.080409e+002,5.662497e+001
8.099694e+002,5.646725e+001
8.118979e+002,5.648060e+001
8.138264e+002,5.653977e+001
8.157549e+002,5.646492e+001
8.176833e+002,5.627299e+001
8.196119e+002,5.623339e+001
8.215403e+002,5.623033e+001
8.234689e+002,5.610192e+001
8.253973e+002,5.587171e+001
8.273259e+002,5.576752e+001
8.292543e+002,5.569706e+001
8.311829e+002,5.553310e+001
8.331113e+002,5.527308e+001
8.350399e+002,5.514397e+001
8.369683e+002,5.503804e+001
8.388969e+002,5.480209e+001
8.408253e+002,5.445617e+001
8.427538e+002,5.428195e+001
8.446824e+002,5.411813e+001
8.466108e+002,5.387420e+001
8.485394e+002,5.350833e+001
8.504678e+002,5.320020e+001
8.523964e+002,5.296873e+001
8.543248e+002,5.262476e+001
8.562534e+002,5.216679e+001
8.581818e+002,5.184401e+001
8.601104e+002,5.151624e+001
8.620388e+002,5.105814e+001
8.639673e+002,5.049832e+001
8.658958e+002,5.008668e+001
8.678243e+002,4.961678e+001
8.697528e+002,4.897368e+001
8.716813e+002,4.828224e+001
8.736098e+002,4.767402e+001
8.755383e+002,4.697180e+001
8.774668e+002,4.609386e+001
8.793953e+002,4.511187e+001
8.813238e+002,4.423229e+001
8.832523e+002,4.330013e+001
8.851808e+002,4.215477e+001
8.871093e+002,4.091866e+001
8.890378e+002,3.979611e+001
8.909663e+002,3.871317e+001
8.928948e+002,3.754599e+001
8.948233e+002,3.633492e+001
8.967518e+002,3.523369e+001
8.986803e+002,3.421129e+001
9.006088e+002,3.315031e+001
9.025373e+002,3.208956e+001
9.044658e+002,3.111014e+001
9.063943e+002,3.015124e+001
9.083228e+002,2.916844e+001
9.102513e+002,2.817203e+001
9.121798e+002,2.715532e+001
9.141083e+002,2.621221e+001
9.160368e+002,2.530988e+001
9.179653e+002,2.434864e+001
9.198938e+002,2.335589e+001
9.218223e+002,2.233934e+001
9.237508e+002,2.118601e+001
9.256793e+002,1.990307e+001
9.276078e+002,1.852065e+001
9.295363e+002,1.720921e+001
9.314648e+002,1.602156e+001
9.333932e+002,1.492986e+001
9.353218e+002,1.409056e+001
9.372502e+002,1.355417e+001
9.391788e+002,1.315141e+001
9.411072e+002,1.283804e+001
9.430358e+002,1.257686e+001
9.449643e+002,1.239427e+001
9.468928e+002,1.224518e+001
9.488213e+002,1.213849e+001
9.507498e+002,1.202166e+001
9.526783e+002,1.190142e+001
9.546068e+002,1.176309e+001
9.565353e+002,1.162647e+001
9.584637e+002,1.144700e+001
9.603923e+002,1.133598e+001
9.623207e+002,1.122690e+001
9.642493e+002,1.115427e+001
9.661777e+002,1.111712e+001
9.681063e+002,1.110015e+001
9.700347e+002,1.103808e+001
9.719633e+002,1.099499e+001
9.738917e+002,1.096958e+001
9.758203e+002,1.100169e+001
9.777487e+002,1.108255e+001
9.796772e+002,1.115921e+001
9.816057e+002,1.122419e+001
9.835342e+002,1.127152e+001
9.854627e+002,1.126434e+001
9.873912e+002,1.123755e+001
9.893197e+002,1.119749e+001
9.912482e+002,1.118712e+001
9.931768e+002,1.113314e+001
9.951052e+002,1.105849e+001
9.970338e+002,1.089981e+001
9.989622e+002,1.072393e+001
1.000891e+003,1.051542e+001
1.002819e+003,1.027244e+001
1.004748e+003,1.007035e+001
1.006676e+003,1.001364e+001
1.008605e+003,1.000000e+001
1.010533e+003,1.003174e+001
1.012462e+003,1.012928e+001
1.014390e+003,1.027679e+001
1.016319e+003,1.038108e+001
1.018247e+003,1.051343e+001
1.020176e+003,1.067484e+001
1.022104e+003,1.083527e+001
1.024033e+003,1.094775e+001
1.025961e+003,1.109548e+001
1.027890e+003,1.125589e+001
1.029818e+003,1.145311e+001
1.031747e+003,1.166315e+001
1.033675e+003,1.182636e+001
1.035604e+003,1.196991e+001
1.037532e+003,1.215761e+001
1.039461e+003,1.238457e+001
1.041389e+003,1.263922e+001
1.043318e+003,1.288438e+001
1.045246e+003,1.317474e+001
1.047175e+003,1.347538e+001
1.049103e+003,1.378023e+001
1.051032e+003,1.407927e+001
1.052960e+003,1.444210e+001
1.054889e+003,1.481956e+001
1.056817e+003,1.519250e+001
1.058746e+003,1.551854e+001
1.060674e+003,1.579236e+001
1.062603e+003,1.605098e+001
1.064531e+003,1.631535e+001
1.066460e+003,1.649144e+001
1.068388e+003,1.661667e+001
1.070317e+003,1.671750e+001
1.072245e+003,1.680542e+001
1.074174e+003,1.689326e+001
1.076102e+003,1.698960e+001
1.078031e+003,1.709785e+001
1.079959e+003,1.727878e+001
1.081888e+003,1.748787e+001
1.083816e+003,1.767888e+001
1.085745e+003,1.789350e+001
1.087673e+003,1.809008e+001
1.089602e+003,1.825707e+001
1.091530e+003,1.845654e+001
1.093459e+003,1.868801e+001
1.095387e+003,1.889809e+001
1.097316e+003,1.907171e+001
1.099244e+003,1.928169e+001
1.101173e+003,1.942825e+001
1.103101e+003,1.951999e+001
1.105030e+003,1.956314e+001
1.106958e+003,1.952517e+001
1.108887e+003,1.944283e+001
1.110815e+003,1.930589e+001
1.112744e+003,1.906058e+001
1.114672e+003,1.875209e+001
1.116601e+003,1.847684e+001
1.118529e+003,1.821072e+001
1.120458e+003,1.793047e+001
1.122386e+003,1.772876e+001
1.124315e+003,1.759091e+001
1.126243e+003,1.751360e+001
1.128172e+003,1.747511e+001
1.130100e+003,1.752220e+001
1.132029e+003,1.764415e+001
1.133957e+003,1.778743e+001
1.135886e+003,1.791641e+001
1.137814e+003,1.808070e+001
1.139743e+003,1.820324e+001
1.141671e+003,1.837514e+001
1.143600e+003,1.856340e+001
1.145528e+003,1.867832e+001
1.147457e+003,1.873921e+001
1.149385e+003,1.884916e+001
1.151314e+003,1.896688e+001
1.153242e+003,1.906449e+001
1.155171e+003,1.913385e+001
1.157099e+003,1.919843e+001
1.159028e+003,1.927843e+001
1.160956e+003,1.939659e+001
1.162885e+003,1.954436e+001
1.164813e+003,1.969964e+001
1.166742e+003,1.986775e+001
1.168670e+003,2.002187e+001
1.170599e+003,2.019948e+001
1.172527e+003,2.046473e+001
1.174456e+003,2.067260e+001
1.176384e+003,2.086123e+001
1.178313e+003,2.109816e+001
1.180241e+003,2.133622e+001
1.182170e+003,2.157187e+001
1.184098e+003,2.179317e+001
1.186027e+003,2.199936e+001
1.187955e+003,2.223779e+001
1.189884e+003,2.244041e+001
1.191812e+003,2.259865e+001
1.193741e+003,2.273999e+001
1.195669e+003,2.290567e+001
1.197598e+003,2.307087e+001
1.199526e+003,2.324259e+001
1.201455e+003,2.336188e+001
1.203383e+003,2.347972e+001
1.205312e+003,2.363228e+001
1.207240e+003,2.376657e+001
1.209169e+003,2.388452e+001
1.211097e+003,2.400125e+001
1.213026e+003,2.411903e+001
1.214954e+003,2.420493e+001
1.216883e+003,2.430180e+001
1.218811e+003,2.441877e+001
1.220740e+003,2.451155e+001
1.222668e+003,2.458592e+001
1.224597e+003,2.468843e+001
1.226525e+003,2.478301e+001
1.228453e+003,2.484576e+001
1.230382e+003,2.492633e+001
1.232311e+003,2.503295e+001
1.234239e+003,2.511696e+001
1.236167e+003,2.518867e+001
1.238096e+003,2.524606e+001
1.240025e+003,2.530669e+001
1.241953e+003,2.537607e+001
1.243882e+003,2.545972e+001
1.245810e+003,2.550629e+001
1.247739e+003,2.557584e+001
1.249667e+003,2.564449e+001
1.251596e+003,2.568348e+001
1.253524e+003,2.569762e+001
1.255453e+003,2.574213e+001
1.257381e+003,2.582790e+001
1.259310e+003,2.590421e+001
1.261238e+003,2.595017e+001
1.263167e+003,2.598429e+001
1.265095e+003,2.602283e+001
1.267024e+003,2.605927e+001
1.268952e+003,2.608936e+001
1.270880e+003,2.614119e+001
1.272809e+003,2.621534e+001
1.274738e+003,2.623465e+001
1.276666e+003,2.622458e+001
1.278594e+003,2.623764e+001
1.280523e+003,2.631932e+001
1.282452e+003,2.635820e+001
1.284380e+003,2.635062e+001
1.286308e+003,2.640600e+001
1.288237e+003,2.647020e+001
1.290166e+003,2.649283e+001
1.292094e+003,2.652028e+001
1.294022e+003,2.655106e+001
1.295951e+003,2.658982e+001
1.297880e+003,2.660388e+001
1.299808e+003,2.659531e+001
1.301736e+003,2.659269e+001
1.303665e+003,2.662778e+001
1.305594e+003,2.665485e+001
1.307522e+003,2.667424e+001
1.309450e+003,2.672070e+001
1.311379e+003,2.673840e+001
1.313307e+003,2.675211e+001
1.315236e+003,2.675239e+001
1.317164e+003,2.676668e+001
1.319093e+003,2.681680e+001
1.321021e+003,2.684312e+001
1.322950e+003,2.680829e+001
1.324878e+003,2.684630e+001
1.326807e+003,2.690399e+001
1.328735e+003,2.690117e+001
1.330664e+003,2.686895e+001
1.332592e+003,2.689433e+001
1.334521e+003,2.693494e+001
1.336449e+003,2.694631e+001
1.338378e+003,2.696518e+001
1.340307e+003,2.706631e+001
1.342235e+003,2.704584e+001
1.344163e+003,2.701743e+001
1.346092e+003,2.700681e+001
1.348021e+003,2.701476e+001
1.349949e+003,2.702818e+001
1.351877e+003,2.702496e+001
1.353806e+003,2.702291e+001
1.355734e+003,2.706522e+001
1.357663e+003,2.708742e+001
1.359591e+003,2.706335e+001
1.361520e+003,2.704966e+001
1.363448e+003,2.718652e+001
1.365377e+003,2.716245e+001
1.367305e+003,2.709316e+001
1.369234e+003,2.707791e+001
1.371162e+003,2.703449e+001
1.373091e+003,2.706640e+001
1.375019e+003,2.721462e+001
1.376948e+003,2.714884e+001
1.378876e+003,2.710263e+001
1.380805e+003,2.711120e+001
1.382733e+003,2.713431e+001
1.384662e+003,2.708595e+001
1.386590e+003,2.715350e+001
1.388519e+003,2.730719e+001
1.390447e+003,2.725068e+001
1.392376e+003,2.713702e+001
1.394304e+003,2.716661e+001
1.396233e+003,2.727268e+001
1.398161e+003,2.723887e+001
1.400090e+003,2.727351e+001
1.402018e+003,2.716186e+001
1.403947e+003,2.719471e+001
1.405875e+003,2.729116e+001
1.407804e+003,2.720864e+001
1.409732e+003,2.716471e+001
1.411661e+003,2.722116e+001
1.413589e+003,2.718797e+001
1.415518e+003,2.711633e+001
1.417446e+003,2.711372e+001
1.419375e+003,2.738215e+001
1.421303e+003,2.730844e+001
1.423232e+003,2.719311e+001
1.425160e+003,2.725694e+001
1.427089e+003,2.713914e+001
1.429017e+003,2.715570e+001
1.430946e+003,2.723546e+001
1.432874e+003,2.717358e+001
1.434803e+003,2.704634e+001
1.436731e+003,2.730410e+001
1.438660e+003,2.732819e+001
1.440588e+003,2.718050e+001
1.442517e+003,2.717425e+001
1.444445e+003,2.715293e+001
1.446374e+003,2.711864e+001
1.448302e+003,2.721810e+001
1.450231e+003,2.717235e+001
1.452159e+003,2.711440e+001
1.454088e+003,2.702517e+001
1.456016e+003,2.705641e+001
1.457945e+003,2.759827e+001
1.459873e+003,2.743942e+001
1.461802e+003,2.713905e+001
1.463730e+003,2.705396e+001
1.465659e+003,2.728936e+001
1.467587e+003,2.720293e+001
1.469516e+003,2.701523e+001
1.471444e+003,2.698798e+001
1.473373e+003,2.733673e+001
1.475301e+003,2.732031e+001
1.477230e+003,2.727635e+001
1.479158e+003,2.711688e+001
1.481087e+003,2.711994e+001
1.483015e+003,2.717799e+001
1.484944e+003,2.707486e+001
1.486872e+003,2.703468e+001
1.488801e+003,2.712925e+001
1.490729e+003,2.736353e+001
1.492658e+003,2.720239e+001
1.494586e+003,2.699038e+001
1.496515e+003,2.712036e+001
1.498443e+003,2.725369e+001
1.500372e+003,2.719391e+001
1.502300e+003,2.705694e+001
1.504229e+003,2.684202e+001
1.506157e+003,2.698849e+001
1.508086e+003,2.763108e+001
1.510014e+003,2.727355e+001
1.511943e+003,2.713570e+001
1.513871e+003,2.706878e+001
1.515800e+003,2.708608e+001
1.517728e+003,2.722260e+001
1.519657e+003,2.697733e+001
1.521585e+003,2.726797e+001
1.523514e+003,2.726590e+001
1.525442e+003,2.712010e+001
1.527371e+003,2.719098e+001
1.529299e+003,2.714597e+001
1.531228e+003,2.694407e+001
1.533156e+003,2.703312e+001
1.535085e+003,2.714947e+001
1.537013e+003,2.683426e+001
1.538942e+003,2.680922e+001
1.540870e+003,2.736504e+001
1.542799e+003,2.728732e+001
1.544727e+003,2.720709e+001
1.546656e+003,2.706348e+001
1.548584e+003,2.690558e+001
1.550513e+003,2.703569e+001
1.552441e+003,2.691825e+001
1.554370e+003,2.690570e+001
1.556298e+003,2.678057e+001
1.558227e+003,2.696155e+001
1.560155e+003,2.765604e+001
1.562084e+003,2.709049e+001
1.564012e+003,2.690675e+001
1.565941e+003,2.689754e+001
1.567869e+003,2.675155e+001
1.569798e+003,2.699261e+001
1.571726e+003,2.692470e+001
1.573655e+003,2.664367e+001
1.575583e+003,2.674552e+001
1.577512e+003,2.701063e+001
1.579440e+003,2.679388e+001
1.581369e+003,2.670714e+001
1.583297e+003,2.669095e+001
1.585226e+003,2.664515e+001
1.587154e+003,2.659410e+001
1.589083e+003,2.658889e+001
1.591011e+003,2.657646e+001
1.592940e+003,2.651668e+001
1.594868e+003,2.651351e+001
1.596797e+003,2.651061e+001
1.598725e+003,2.645214e+001
1.600654e+003,2.640142e+001
1.602582e+003,2.638479e+001
1.604511e+003,2.637010e+001
1.606439e+003,2.632909e+001
1.608368e+003,2.630670e+001
1.610296e+003,2.625952e+001
1.612225e+003,2.619475e+001
1.614153e+003,2.606589e+001
1.616082e+003,2.613068e+001
1.618010e+003,2.631957e+001
1.619939e+003,2.609037e+001
1.621867e+003,2.597075e+001
1.623796e+003,2.616928e+001
1.625724e+003,2.607838e+001
1.627653e+003,2.603718e+001
1.629581e+003,2.603883e+001
1.631510e+003,2.587454e+001
1.633438e+003,2.571869e+001
1.635367e+003,2.593138e+001
1.637295e+003,2.627265e+001
1.639224e+003,2.603108e+001
1.641152e+003,2.591701e+001
1.643081e+003,2.582654e+001
1.645009e+003,2.577679e+001
1.646938e+003,2.615991e+001
1.648866e+003,2.617364e+001
1.650795e+003,2.575727e+001
1.652723e+003,2.599613e+001
1.654652e+003,2.649672e+001
1.656580e+003,2.609366e+001
1.658509e+003,2.590859e+001
1.660437e+003,2.584222e+001
1.662366e+003,2.598192e+001
1.664294e+003,2.608401e+001
1.666223e+003,2.588369e+001
1.668151e+003,2.585625e+001
1.670080e+003,2.608158e+001
1.672008e+003,2.603423e+001
1.673937e+003,2.586502e+001
1.675865e+003,2.610290e+001
1.677794e+003,2.596912e+001
1.679722e+003,2.587891e+001
1.681651e+003,2.575994e+001
1.683579e+003,2.594929e+001
1.685508e+003,2.639538e+001
1.687436e+003,2.602990e+001
1.689365e+003,2.596443e+001
1.691293e+003,2.596785e+001
1.693222e+003,2.579243e+001
1.695150e+003,2.580997e+001
1.697079e+003,2.604606e+001
1.699007e+003,2.587249e+001
1.700936e+003,2.633437e+001
1.702864e+003,2.606133e+001
1.704793e+003,2.595521e+001
1.706721e+003,2.612042e+001
1.708650e+003,2.599398e+001
1.710578e+003,2.591910e+001
1.712507e+003,2.583786e+001
1.714435e+003,2.583939e+001
1.716364e+003,2.595516e+001
1.718292e+003,2.628716e+001
1.720221e+003,2.610171e+001
1.722149e+003,2.592299e+001
1.724078e+003,2.592610e+001
1.726006e+003,2.584428e+001
1.727935e+003,2.577870e+001
1.729863e+003,2.583853e+001
1.731792e+003,2.575746e+001
1.733720e+003,2.593553e+001
1.735649e+003,2.616592e+001
1.737577e+003,2.584101e+001
1.739506e+003,2.587237e+001
1.741434e+003,2.585444e+001
1.743363e+003,2.583148e+001
1.745291e+003,2.582004e+001
1.747220e+003,2.580491e+001
1.749148e+003,2.588219e+001
1.751077e+003,2.594449e+001
1.753005e+003,2.591805e+001
1.754934e+003,2.574818e+001
1.756862e+003,2.582141e+001
1.758791e+003,2.577592e+001
1.760719e+003,2.570614e+001
1.762648e+003,2.584463e+001
1.764576e+003,2.575765e+001
1.766505e+003,2.566643e+001
1.768433e+003,2.574565e+001
1.770362e+003,2.565129e+001
1.772290e+003,2.584000e+001
1.774219e+003,2.587546e+001
1.776147e+003,2.575985e+001
1.778076e+003,2.564061e+001
1.780004e+003,2.561494e+001
1.781933e+003,2.566220e+001
1.783861e+003,2.564627e+001
1.785790e+003,2.568507e+001
1.787718e+003,2.558738e+001
1.789647e+003,2.550456e+001
1.791575e+003,2.562763e+001
1.793504e+003,2.577782e+001
1.795432e+003,2.565731e+001
1.797361e+003,2.559363e+001
1.799289e+003,2.556738e+001
1.801218e+003,2.562002e+001
1.803146e+003,2.559773e+001
1.805075e+003,2.554947e+001
1.807003e+003,2.552778e+001
1.808932e+003,2.553117e+001
1.810860e+003,2.557763e+001
1.812789e+003,2.559630e+001
1.814717e+003,2.552492e+001
1.816646e+003,2.553621e+001
1.818574e+003,2.552922e+001
1.820503e+003,2.549907e+001
1.822431e+003,2.544415e+001
1.824360e+003,2.549851e+001
1.826288e+003,2.552153e+001
1.828217e+003,2.542188e+001
1.830145e+003,2.560402e+001
1.832074e+003,2.555695e+001
1.834002e+003,2.542977e+001
1.835931e+003,2.541641e+001
1.837859e+003,2.543580e+001
1.839788e+003,2.542720e+001
1.841716e+003,2.533345e+001
1.843645e+003,2.542137e+001
1.845573e+003,2.551189e+001
1.847502e+003,2.540437e+001
1.849430e+003,2.536795e+001
1.851359e+003,2.533230e+001
1.853287e+003,2.529598e+001
1.855216e+003,2.527346e+001
1.857144e+003,2.528052e+001
1.859073e+003,2.526711e+001
1.861001e+003,2.524563e+001
1.862930e+003,2.521346e+001
1.864858e+003,2.515504e+001
1.866786e+003,2.512706e+001
1.868715e+003,2.528439e+001
1.870644e+003,2.534681e+001
1.872572e+003,2.521817e+001
1.874500e+003,2.516032e+001
1.876429e+003,2.512981e+001
1.878358e+003,2.512091e+001
1.880286e+003,2.510637e+001
1.882215e+003,2.508842e+001
1.884143e+003,2.508621e+001
1.886072e+003,2.507068e+001
1.888000e+003,2.503520e+001
1.889929e+003,2.513054e+001
1.891857e+003,2.508578e+001
1.893786e+003,2.501661e+001
1.895714e+003,2.505647e+001
1.897643e+003,2.501759e+001
1.899571e+003,2.497161e+001
1.901500e+003,2.497189e+001
1.903428e+003,2.496518e+001
1.905357e+003,2.495387e+001
1.907285e+003,2.493407e+001
1.909214e+003,2.495757e+001
1.911142e+003,2.497544e+001
1.913071e+003,2.493984e+001
1.914999e+003,2.488248e+001
1.916927e+003,2.487340e+001
1.918856e+003,2.493915e+001
1.920785e+003,2.485590e+001
1.922713e+003,2.490202e+001
1.924641e+003,2.493198e+001
1.926570e+003,2.487596e+001
1.928499e+003,2.486499e+001
1.930427e+003,2.485209e+001
1.932355e+003,2.483244e+001
1.934284e+003,2.482012e+001
1.936213e+003,2.480239e+001
1.938141e+003,2.478574e+001
1.940069e+003,2.473105e+001
1.941998e+003,2.473866e+001
1.943927e+003,2.478970e+001
1.945855e+003,2.476052e+001
1.947783e+003,2.473773e+001
1.949712e+003,2.471276e+001
1.951641e+003,2.471140e+001
1.953569e+003,2.470353e+001
1.955497e+003,2.470198e+001
1.957426e+003,2.466684e+001
1.959354e+003,2.464852e+001
1.961283e+003,2.464015e+001
1.963211e+003,2.462427e+001
1.965140e+003,2.458295e+001
1.967068e+003,2.458141e+001
1.968997e+003,2.458436e+001
1.970925e+003,2.457296e+001
1.972854e+003,2.455905e+001
1.974782e+003,2.454547e+001
1.976711e+003,2.453244e+001
1.978639e+003,2.451093e+001
1.980568e+003,2.451518e+001
1.982496e+003,2.452853e+001
1.984425e+003,2.448850e+001
1.986354e+003,2.444992e+001
1.988282e+003,2.445587e+001
1.990210e+003,2.444500e+001
1.992139e+003,2.447840e+001
1.994068e+003,2.447037e+001
1.995996e+003,2.443044e+001
1.997924e+003,2.442614e+001
1.999853e+003,2.441424e+001
2.001781e+003,2.440854e+001
2.003710e+003,2.439311e+001
2.005638e+003,2.438899e+001
2.007567e+003,2.435717e+001
2.009495e+003,2.433386e+001
2.011424e+003,2.433491e+001
2.013352e+003,2.430839e+001
2.015281e+003,2.427699e+001
2.017209e+003,2.430716e+001
2.019138e+003,2.431443e+001
2.021066e+003,2.431628e+001
2.022995e+003,2.429681e+001
2.024923e+003,2.427818e+001
2.026852e+003,2.428258e+001
2.028780e+003,2.428380e+001
2.030709e+003,2.426017e+001
2.032637e+003,2.423626e+001
2.034566e+003,2.422891e+001
2.036494e+003,2.422875e+001
2.038423e+003,2.422644e+001
2.040351e+003,2.424513e+001
2.042280e+003,2.423469e+001
2.044208e+003,2.420698e+001
2.046137e+003,2.419902e+001
2.048065e+003,2.418995e+001
2.049994e+003,2.416592e+001
2.051922e+003,2.416084e+001
2.053851e+003,2.418224e+001
2.055779e+003,2.418510e+001
2.057708e+003,2.416846e+001
2.059636e+003,2.415053e+001
2.061565e+003,2.412496e+001
2.063493e+003,2.411058e+001
2.065422e+003,2.413166e+001
2.067350e+003,2.412588e+001
2.069279e+003,2.410762e+001
2.071207e+003,2.411014e+001
2.073136e+003,2.410084e+001
2.075064e+003,2.407788e+001
2.076993e+003,2.406338e+001
2.078921e+003,2.406015e+001
2.080850e+003,2.404821e+001
2.082778e+003,2.404911e+001
2.084707e+003,2.403592e+001
2.086635e+003,2.402875e+001
2.088564e+003,2.403654e+001
2.090492e+003,2.404256e+001
2.092421e+003,2.402067e+001
2.094349e+003,2.399257e+001
2.096278e+003,2.398673e+001
2.098206e+003,2.398109e+001
2.100135e+003,2.398812e+001
2.102063e+003,2.397970e+001
2.103992e+003,2.394627e+001
2.105920e+003,2.393414e+001
2.107849e+003,2.393331e+001
2.109777e+003,2.392708e+001
2.111706e+003,2.392618e+001
2.113634e+003,2.389851e+001
2.115563e+003,2.388416e+001
2.117491e+003,2.386924e+001
2.119420e+003,2.386850e+001
2.121348e+003,2.387199e+001
2.123277e+003,2.385480e+001
2.125205e+003,2.384535e+001
2.127134e+003,2.383199e+001
2.129062e+003,2.381968e+001
2.130991e+003,2.380738e+001
2.132919e+003,2.380938e+001
2.134848e+003,2.383658e+001
2.136776e+003,2.383612e+001
2.138705e+003,2.378611e+001
2.140633e+003,2.375499e+001
2.142562e+003,2.372809e+001
2.144490e+003,2.371734e+001
2.146419e+003,2.371394e+001
2.148347e+003,2.371085e+001
2.150276e+003,2.371091e+001
2.152204e+003,2.370641e+001
2.154133e+003,2.370385e+001
2.156061e+003,2.369682e+001
2.157990e+003,2.367654e+001
2.159918e+003,2.366449e+001
2.161847e+003,2.365492e+001
2.163775e+003,2.362761e+001
2.165704e+003,2.360586e+001
2.167632e+003,2.360699e+001
2.169561e+003,2.360130e+001
2.171489e+003,2.358956e+001
2.173418e+003,2.358721e+001
2.175346e+003,2.358010e+001
2.177275e+003,2.358710e+001
2.179203e+003,2.360848e+001
2.181132e+003,2.356697e+001
2.183060e+003,2.351497e+001
2.184989e+003,2.350653e+001
2.186917e+003,2.352225e+001
2.188846e+003,2.351008e+001
2.190774e+003,2.349652e+001
2.192703e+003,2.348506e+001
2.194631e+003,2.346677e+001
2.196560e+003,2.344744e+001
2.198488e+003,2.345731e+001
2.200417e+003,2.346702e+001
2.202345e+003,2.342348e+001
2.204274e+003,2.339302e+001
2.206202e+003,2.341342e+001
2.208131e+003,2.342662e+001
2.210059e+003,2.341826e+001
2.211988e+003,2.338955e+001
2.213916e+003,2.337936e+001
2.215845e+003,2.337286e+001
2.217773e+003,2.333952e+001
2.219702e+003,2.331284e+001
2.221630e+003,2.332713e+001
2.223559e+003,2.331274e+001
2.225487e+003,2.327478e+001
2.227416e+003,2.325676e+001
2.229344e+003,2.327058e+001
2.231273e+003,2.326849e+001
2.233201e+003,2.324423e+001
2.235130e+003,2.323879e+001
2.237058e+003,2.322911e+001
2.238987e+003,2.321195e+001
2.240915e+003,2.318079e+001
2.242844e+003,2.315241e+001
2.244772e+003,2.314694e+001
2.246701e+003,2.315594e+001
2.248629e+003,2.315056e+001
2.250558e+003,2.313728e+001
2.252486e+003,2.312031e+001
2.254415e+003,2.311061e+001
2.256343e+003,2.311203e+001
2.258272e+003,2.308334e+001
2.260200e+003,2.306214e+001
2.262129e+003,2.303966e+001
2.264057e+003,2.299370e+001
2.265986e+003,2.296933e+001
2.267914e+003,2.294188e+001
2.269843e+003,2.293445e+001
2.271771e+003,2.294419e+001
2.273700e+003,2.294865e+001
2.275628e+003,2.293614e+001
2.277557e+003,2.292924e+001
2.279485e+003,2.291904e+001
2.281414e+003,2.291379e+001
2.283342e+003,2.292618e+001
2.285271e+003,2.291021e+001
2.287199e+003,2.282961e+001
2.289128e+003,2.272718e+001
2.291056e+003,2.267979e+001
2.292985e+003,2.263381e+001
2.294913e+003,2.256570e+001
2.296842e+003,2.248483e+001
2.298770e+003,2.238806e+001
2.300699e+003,2.229166e+001
2.302627e+003,2.219757e+001
2.304556e+003,2.209853e+001
2.306484e+003,2.195476e+001
2.308413e+003,2.177917e+001
2.310341e+003,2.163828e+001
2.312270e+003,2.151828e+001
2.314198e+003,2.146463e+001
2.316127e+003,2.136047e+001
2.318055e+003,2.108297e+001
2.319984e+003,2.075307e+001
2.321912e+003,2.053987e+001
2.323841e+003,2.046562e+001
2.325769e+003,2.031298e+001
2.327698e+003,2.010577e+001
2.329626e+003,1.998296e+001
2.331555e+003,1.992393e+001
2.333483e+003,1.991721e+001
2.335412e+003,1.979280e+001
2.337340e+003,1.969436e+001
2.339269e+003,1.966957e+001
2.341197e+003,1.957726e+001
2.343126e+003,1.963714e+001
2.345054e+003,1.997857e+001
2.346983e+003,2.050302e+001
2.348911e+003,2.054171e+001
2.350840e+003,2.001989e+001
2.352768e+003,1.944911e+001
2.354697e+003,1.896194e+001
2.356625e+003,1.863257e+001
2.358554e+003,1.855910e+001
2.360482e+003,1.850123e+001
2.362411e+003,1.852902e+001
2.364339e+003,1.874761e+001
2.366268e+003,1.904263e+001
2.368196e+003,1.945882e+001
2.370125e+003,1.996928e+001
2.372053e+003,2.042611e+001
2.373982e+003,2.081046e+001
2.375910e+003,2.116687e+001
2.377839e+003,2.150441e+001
2.379767e+003,2.179133e+001
2.381696e+003,2.200533e+001
2.383624e+003,2.219797e+001
2.385553e+003,2.234369e+001
2.387481e+003,2.242399e+001
2.389410e+003,2.245314e+001
2.391338e+003,2.244126e+001
2.393267e+003,2.243245e+001
2.395195e+003,2.242118e+001
2.397124e+003,2.240524e+001
2.399052e+003,2.240978e+001
2.400981e+003,2.241624e+001
2.402909e+003,2.242981e+001
2.404838e+003,2.240455e+001
2.406766e+003,2.239765e+001
2.408695e+003,2.239190e+001
2.410623e+003,2.236401e+001
2.412552e+003,2.235819e+001
2.414480e+003,2.235986e+001
2.416409e+003,2.233569e+001
2.418337e+003,2.234889e+001
2.420266e+003,2.235404e+001
2.422194e+003,2.232009e+001
2.424123e+003,2.228185e+001
2.426051e+003,2.229144e+001
2.427980e+003,2.229084e+001
2.429908e+003,2.225828e+001
2.431837e+003,2.222598e+001
2.433765e+003,2.223640e+001
2.435694e+003,2.225157e+001
2.437622e+003,2.224592e+001
2.439551e+003,2.221248e+001
2.441479e+003,2.219776e+001
2.443408e+003,2.218797e+001
2.445336e+003,2.219245e+001
2.447265e+003,2.220255e+001
2.449193e+003,2.218899e+001
2.451122e+003,2.214943e+001
2.453050e+003,2.213716e+001
2.454979e+003,2.212762e+001
2.456907e+003,2.212172e+001
2.458836e+003,2.209686e+001
2.460764e+003,2.209768e+001
2.462693e+003,2.209831e+001
2.464621e+003,2.209716e+001
2.466550e+003,2.209130e+001
2.468478e+003,2.205550e+001
2.470406e+003,2.203777e+001
2.472335e+003,2.203205e+001
2.474264e+003,2.201816e+001
2.476192e+003,2.199114e+001
2.478121e+003,2.197651e+001
2.480049e+003,2.198445e+001
2.481978e+003,2.199421e+001
2.483906e+003,2.199418e+001
2.485834e+003,2.199967e+001
2.487763e+003,2.199492e+001
2.489692e+003,2.196807e+001
2.491620e+003,2.193356e+001
2.493549e+003,2.191060e+001
2.495477e+003,2.190500e+001
2.497406e+003,2.190143e+001
2.499334e+003,2.189072e+001
2.501262e+003,2.190011e+001
2.503191e+003,2.189410e+001
2.505120e+003,2.186789e+001
2.507048e+003,2.184983e+001
2.508977e+003,2.183158e+001
2.510905e+003,2.182248e+001
2.512833e+003,2.179911e+001
2.514762e+003,2.179767e+001
2.516690e+003,2.180737e+001
2.518619e+003,2.181094e+001
2.520548e+003,2.179649e+001
2.522476e+003,2.178004e+001
2.524405e+003,2.179296e+001
2.526333e+003,2.177745e+001
2.528261e+003,2.175373e+001
2.530190e+003,2.177244e+001
2.532119e+003,2.177677e+001
2.534047e+003,2.175810e+001
2.535976e+003,2.174474e+001
2.537904e+003,2.171480e+001
2.539833e+003,2.168951e+001
2.541761e+003,2.169223e+001
2.543689e+003,2.170632e+001
2.545618e+003,2.170953e+001
2.547547e+003,2.168211e+001
2.549475e+003,2.165954e+001
2.551404e+003,2.165998e+001
2.553332e+003,2.165771e+001
2.555260e+003,2.164075e+001
2.557189e+003,2.162431e+001
2.559117e+003,2.161953e+001
2.561046e+003,2.159949e+001
2.562975e+003,2.156938e+001
2.564903e+003,2.156269e+001
2.566832e+003,2.154267e+001
2.568760e+003,2.154795e+001
2.570688e+003,2.155630e+001
2.572617e+003,2.155810e+001
2.574545e+003,2.155715e+001
2.576474e+003,2.154759e+001
2.578403e+003,2.152737e+001
2.580331e+003,2.151984e+001
2.582260e+003,2.151069e+001
2.584188e+003,2.148858e+001
2.586116e+003,2.146628e+001
2.588045e+003,2.148863e+001
2.589973e+003,2.150375e+001
2.591902e+003,2.145234e+001
2.593831e+003,2.142214e+001
2.595759e+003,2.139466e+001
2.597688e+003,2.139303e+001
2.599616e+003,2.140829e+001
2.601544e+003,2.139277e+001
2.603473e+003,2.136036e+001
2.605401e+003,2.135005e+001
2.607330e+003,2.135144e+001
2.609259e+003,2.134241e+001
2.611187e+003,2.133892e+001
2.613115e+003,2.132128e+001
2.615044e+003,2.130288e+001
2.616972e+003,2.128252e+001
2.618901e+003,2.128629e+001
2.620830e+003,2.129723e+001
2.622758e+003,2.126253e+001
2.624687e+003,2.120677e+001
2.626615e+003,2.122768e+001
2.628543e+003,2.125730e+001
2.630472e+003,2.125147e+001
2.632400e+003,2.122729e+001
2.634329e+003,2.120102e+001
2.636258e+003,2.119304e+001
2.638186e+003,2.118491e+001
2.640115e+003,2.119909e+001
2.642043e+003,2.120969e+001
2.643971e+003,2.118918e+001
2.645900e+003,2.118269e+001
2.647828e+003,2.117062e+001
2.649757e+003,2.114033e+001
2.651686e+003,2.111695e+001
2.653614e+003,2.110503e+001
2.655542e+003,2.108700e+001
2.657471e+003,2.108211e+001
2.659399e+003,2.107547e+001
2.661328e+003,2.106998e+001
2.663256e+003,2.107593e+001
2.665185e+003,2.106964e+001
2.667114e+003,2.109440e+001
2.669042e+003,2.107755e+001
2.670970e+003,2.102742e+001
2.672899e+003,2.101434e+001
2.674827e+003,2.099230e+001
2.676756e+003,2.096511e+001
2.678684e+003,2.095051e+001
2.680613e+003,2.094740e+001
2.682542e+003,2.097608e+001
2.684470e+003,2.097919e+001
2.686398e+003,2.098623e+001
2.688327e+003,2.098166e+001
2.690255e+003,2.093901e+001
2.692184e+003,2.090706e+001
2.694112e+003,2.089657e+001
2.696041e+003,2.088952e+001
2.697969e+003,2.089636e+001
2.699898e+003,2.089132e+001
2.701826e+003,2.087553e+001
2.703755e+003,2.085229e+001
2.705683e+003,2.084469e+001
2.707612e+003,2.085004e+001
2.709540e+003,2.083642e+001
2.711469e+003,2.084444e+001
2.713397e+003,2.085857e+001
2.715326e+003,2.081510e+001
2.717254e+003,2.078266e+001
2.719183e+003,2.077901e+001
2.721111e+003,2.076891e+001
2.723040e+003,2.075667e+001
2.724969e+003,2.075302e+001
2.726897e+003,2.074136e+001
2.728825e+003,2.073800e+001
2.730754e+003,2.074480e+001
2.732682e+003,2.074176e+001
2.734611e+003,2.073084e+001
2.736539e+003,2.072568e+001
2.738468e+003,2.069840e+001
2.740396e+003,2.069544e+001
2.742325e+003,2.070880e+001
2.744253e+003,2.069154e+001
2.746182e+003,2.066254e+001
2.748110e+003,2.063851e+001
2.750039e+003,2.062954e+001
2.751967e+003,2.065486e+001
2.753896e+003,2.065613e+001
2.755824e+003,2.057225e+001
2.757753e+003,2.057431e+001
2.759681e+003,2.061105e+001
2.761610e+003,2.056960e+001
2.763538e+003,2.054457e+001
2.765467e+003,2.053734e+001
2.767395e+003,2.055582e+001
2.769324e+003,2.057115e+001
2.771252e+003,2.055345e+001
2.773181e+003,2.054142e+001
2.775109e+003,2.051528e+001
2.777038e+003,2.050530e+001
2.778966e+003,2.051104e+001
2.780895e+003,2.049937e+001
2.782823e+003,2.046380e+001
2.784752e+003,2.043296e+001
2.786680e+003,2.043306e+001
2.788609e+003,2.044328e+001
2.790537e+003,2.045563e+001
2.792466e+003,2.045691e+001
2.794394e+003,2.043453e+001
2.796323e+003,2.041563e+001
2.798251e+003,2.042112e+001
2.800180e+003,2.039297e+001
2.802108e+003,2.035629e+001
2.804037e+003,2.035489e+001
2.805965e+003,2.038319e+001
2.807894e+003,2.036978e+001
2.809822e+003,2.032178e+001
2.811751e+003,2.033839e+001
2.813679e+003,2.033093e+001
2.815608e+003,2.031958e+001
2.817536e+003,2.034519e+001
2.819465e+003,2.034171e+001
2.821393e+003,2.031322e+001
2.823322e+003,2.025953e+001
2.825250e+003,2.022463e+001
2.827179e+003,2.023488e+001
2.829107e+003,2.023088e+001
2.831036e+003,2.024033e+001
2.832964e+003,2.024982e+001
2.834893e+003,2.021740e+001
2.836821e+003,2.019440e+001
2.838750e+003,2.020024e+001
2.840678e+003,2.018705e+001
2.842607e+003,2.014351e+001
2.844535e+003,2.010037e+001
2.846464e+003,2.006479e+001
2.848392e+003,2.001966e+001
2.850321e+003,2.000525e+001
2.852249e+003,2.006125e+001
2.854178e+003,2.005478e+001
2.856106e+003,2.001373e+001
2.858035e+003,2.001346e+001
2.859963e+003,2.000240e+001
2.861892e+003,1.996101e+001
2.863820e+003,1.994971e+001
2.865749e+003,2.000689e+001
2.867677e+003,2.000170e+001
2.869606e+003,1.996201e+001
2.871534e+003,1.995162e+001
2.873463e+003,1.993135e+001
2.875391e+003,1.992363e+001
2.877320e+003,1.993260e+001
2.879248e+003,1.994035e+001
2.881177e+003,1.993078e+001
2.883105e+003,1.992943e+001
2.885034e+003,1.993303e+001
2.886962e+003,1.989981e+001
2.888891e+003,1.986797e+001
2.890819e+003,1.986236e+001
2.892748e+003,1.987476e+001
2.894676e+003,1.983247e+001
2.896605e+003,1.977737e+001
2.898533e+003,1.975264e+001
2.900462e+003,1.973353e+001
2.902390e+003,1.973983e+001
2.904319e+003,1.975295e+001
2.906247e+003,1.972034e+001
2.908176e+003,1.972848e+001
2.910104e+003,1.971348e+001
2.912033e+003,1.964386e+001
2.913961e+003,1.959792e+001
2.915890e+003,1.957455e+001
2.917818e+003,1.956561e+001
2.919747e+003,1.956240e+001
2.921675e+003,1.958588e+001
2.923604e+003,1.957718e+001
2.925532e+003,1.955148e+001
2.927461e+003,1.956195e+001
2.929389e+003,1.960036e+001
2.931318e+003,1.962695e+001
2.933246e+003,1.962642e+001
2.935175e+003,1.963626e+001
2.937103e+003,1.962664e+001
2.939032e+003,1.961541e+001
2.940960e+003,1.961887e+001
2.942889e+003,1.958456e+001
2.944817e+003,1.960026e+001
2.946746e+003,1.963360e+001
2.948674e+003,1.963245e+001
2.950603e+003,1.961470e+001
2.952531e+003,1.960236e+001
2.954460e+003,1.959356e+001
2.956388e+003,1.958827e+001
2.958317e+003,1.957576e+001
2.960245e+003,1.955312e+001
2.962174e+003,1.955666e+001
2.964102e+003,1.955096e+001
2.966031e+003,1.955092e+001
2.967959e+003,1.955558e+001
2.969888e+003,1.957902e+001
2.971816e+003,1.958903e+001
2.973745e+003,1.957369e+001
2.975673e+003,1.956537e+001
2.977602e+003,1.956244e+001
2.979530e+003,1.955056e+001
2.981459e+003,1.955331e+001
2.983387e+003,1.957825e+001
2.985316e+003,1.958169e+001
2.987244e+003,1.955250e+001
2.989173e+003,1.952216e+001
2.991101e+003,1.949105e+001
2.993030e+003,1.947525e+001
2.994958e+003,1.947345e+001
2.996887e+003,1.947546e+001
2.998815e+003,1.946024e+001
3.000744e+003,1.944604e+001
3.002672e+003,1.945532e+001
3.004601e+003,1.944228e+001
3.006529e+003,1.942304e+001
3.008458e+003,1.941835e+001
3.010386e+003,1.941266e+001
3.012315e+003,1.942430e+001
3.014243e+003,1.941395e+001
3.016172e+003,1.938755e+001
3.018100e+003,1.939299e+001
3.020029e+003,1.938324e+001
3.021957e+003,1.934218e+001
3.023886e+003,1.930670e+001
3.025814e+003,1.932627e+001
3.027743e+003,1.933162e+001
3.029671e+003,1.933713e+001
3.031600e+003,1.932714e+001
3.033528e+003,1.927066e+001
3.035457e+003,1.928390e+001
3.037385e+003,1.930342e+001
3.039314e+003,1.927601e+001
3.041242e+003,1.926329e+001
3.043171e+003,1.923493e+001
3.045099e+003,1.921872e+001
3.047028e+003,1.923016e+001
3.048956e+003,1.922093e+001
3.050885e+003,1.922482e+001
3.052813e+003,1.927718e+001
3.054742e+003,1.923469e+001
3.056670e+003,1.916207e+001
3.058599e+003,1.919127e+001
3.060527e+003,1.923499e+001
3.062456e+003,1.920697e+001
3.064384e+003,1.917575e+001
3.066313e+003,1.916591e+001
3.068241e+003,1.914466e+001
3.070170e+003,1.912106e+001
3.072098e+003,1.914454e+001
3.074027e+003,1.914989e+001
3.075955e+003,1.910891e+001
3.077884e+003,1.913208e+001
3.079812e+003,1.917099e+001
3.081741e+003,1.912697e+001
3.083669e+003,1.906887e+001
3.085598e+003,1.903576e+001
3.087526e+003,1.905047e+001
3.089455e+003,1.903585e+001
3.091383e+003,1.902739e+001
3.093312e+003,1.901800e+001
3.095240e+003,1.900750e+001
3.097169e+003,1.901098e+001
3.099097e+003,1.901012e+001
3.101026e+003,1.902891e+001
3.102954e+003,1.900845e+001
3.104883e+003,1.897556e+001
3.106811e+003,1.895837e+001
3.108740e+003,1.888017e+001
3.110668e+003,1.885869e+001
3.112597e+003,1.889449e+001
3.114525e+003,1.890589e+001
3.116454e+003,1.892094e+001
3.118382e+003,1.892905e+001
3.120311e+003,1.891011e+001
3.122239e+003,1.887708e+001
3.124167e+003,1.884599e+001
3.126096e+003,1.885487e+001
3.128025e+003,1.886783e+001
3.129953e+003,1.883688e+001
3.131882e+003,1.882127e+001
3.133810e+003,1.881595e+001
3.135739e+003,1.876467e+001
3.137667e+003,1.875244e+001
3.139595e+003,1.877682e+001
3.141524e+003,1.875229e+001
3.143453e+003,1.873197e+001
3.145381e+003,1.873559e+001
3.147310e+003,1.868339e+001
3.149238e+003,1.864932e+001
3.151167e+003,1.866336e+001
3.153095e+003,1.866057e+001
3.155023e+003,1.867675e+001
3.156952e+003,1.864980e+001
3.158881e+003,1.863192e+001
3.160809e+003,1.867956e+001
3.162738e+003,1.867134e+001
3.164666e+003,1.861983e+001
3.166594e+003,1.860909e+001
3.168523e+003,1.858914e+001
3.170452e+003,1.855670e+001
3.172380e+003,1.853475e+001
3.174309e+003,1.855978e+001
3.176237e+003,1.854351e+001
3.178166e+003,1.849511e+001
3.180094e+003,1.849474e+001
3.182022e+003,1.848952e+001
3.183951e+003,1.846116e+001
3.185880e+003,1.842808e+001
3.187808e+003,1.839278e+001
3.189737e+003,1.838183e+001
3.191665e+003,1.838491e+001
3.193594e+003,1.836575e+001
3.195522e+003,1.833150e+001
3.197450e+003,1.835517e+001
3.199379e+003,1.835449e+001
3.201308e+003,1.831766e+001
3.203236e+003,1.831202e+001
3.205165e+003,1.832036e+001
3.207093e+003,1.830406e+001
3.209021e+003,1.826619e+001
3.210950e+003,1.824465e+001
3.212878e+003,1.823663e+001
3.214807e+003,1.821996e+001
3.216736e+003,1.820397e+001
3.218664e+003,1.822096e+001
3.220593e+003,1.821119e+001
3.222521e+003,1.821935e+001
3.224449e+003,1.823169e+001
3.226378e+003,1.819399e+001
3.228306e+003,1.817117e+001
3.230235e+003,1.813987e+001
3.232164e+003,1.808421e+001
3.234092e+003,1.804992e+001
3.236021e+003,1.804167e+001
3.237949e+003,1.802385e+001
3.239877e+003,1.800472e+001
3.241806e+003,1.798857e+001
3.243734e+003,1.795685e+001
3.245663e+003,1.796328e+001
3.247592e+003,1.797733e+001
3.249520e+003,1.802570e+001
3.251448e+003,1.801487e+001
3.253377e+003,1.795081e+001
3.255305e+003,1.794026e+001
3.257234e+003,1.796120e+001
3.259162e+003,1.793654e+001
3.261091e+003,1.790766e+001
3.263020e+003,1.785818e+001
3.264948e+003,1.781164e+001
3.266876e+003,1.783889e+001
3.268805e+003,1.787093e+001
3.270733e+003,1.785649e+001
3.272662e+003,1.783522e+001
3.274591e+003,1.778156e+001
3.276519e+003,1.775054e+001
3.278448e+003,1.776099e+001
3.280376e+003,1.772043e+001
3.282304e+003,1.767050e+001
3.284233e+003,1.769209e+001
3.286161e+003,1.770894e+001
3.288090e+003,1.768211e+001
3.290019e+003,1.766065e+001
3.291947e+003,1.765628e+001
3.293875e+003,1.762494e+001
3.295804e+003,1.762374e+001
3.297732e+003,1.765039e+001
3.299661e+003,1.762535e+001
3.301589e+003,1.758044e+001
3.303518e+003,1.756922e+001
3.305447e+003,1.755022e+001
3.307375e+003,1.754074e+001
3.309303e+003,1.756168e+001
3.311232e+003,1.754676e+001
3.313160e+003,1.754797e+001
3.315089e+003,1.756278e+001
3.317017e+003,1.751770e+001
3.318946e+003,1.745852e+001
3.320875e+003,1.742923e+001
3.322803e+003,1.742135e+001
3.324731e+003,1.740845e+001
3.326660e+003,1.738808e+001
3.328588e+003,1.737939e+001
3.330517e+003,1.737042e+001
3.332445e+003,1.736688e+001
3.334374e+003,1.734968e+001
3.336302e+003,1.731610e+001
3.338231e+003,1.725054e+001
3.340159e+003,1.721721e+001
3.342088e+003,1.723572e+001
3.344016e+003,1.723529e+001
3.345945e+003,1.718030e+001
3.347873e+003,1.715097e+001
3.349802e+003,1.712290e+001
3.351730e+003,1.710193e+001
3.353659e+003,1.708395e+001
3.355587e+003,1.710622e+001
3.357516e+003,1.708994e+001
3.359444e+003,1.704406e+001
3.361373e+003,1.705255e+001
3.363302e+003,1.701420e+001
3.365230e+003,1.698491e+001
3.367158e+003,1.698470e+001
3.369087e+003,1.697837e+001
3.371015e+003,1.697356e+001
3.372944e+003,1.695319e+001
3.374872e+003,1.693392e+001
3.376801e+003,1.688112e+001
3.378729e+003,1.680580e+001
3.380658e+003,1.678093e+001
3.382586e+003,1.681999e+001
3.384515e+003,1.683221e+001
3.386443e+003,1.677188e+001
3.388372e+003,1.674876e+001
3.390300e+003,1.674785e+001
3.392229e+003,1.674507e+001
3.394157e+003,1.671720e+001
3.396086e+003,1.666232e+001
3.398014e+003,1.663531e+001
3.399943e+003,1.661852e+001
3.401871e+003,1.661531e+001
3.403800e+003,1.659005e+001
3.405728e+003,1.658108e+001
3.407657e+003,1.651704e+001
3.409585e+003,1.647973e+001
3.411514e+003,1.649025e+001
3.413442e+003,1.652794e+001
3.415371e+003,1.651170e+001
3.417299e+003,1.649338e+001
3.419228e+003,1.655586e+001
3.421156e+003,1.664561e+001
3.423085e+003,1.659300e+001
3.425013e+003,1.647112e+001
3.426942e+003,1.644763e+001
3.428870e+003,1.649949e+001
3.430799e+003,1.649403e+001
3.432727e+003,1.641539e+001
3.434656e+003,1.640207e+001
3.436584e+003,1.640565e+001
3.438513e+003,1.641057e+001
3.440441e+003,1.633784e+001
3.442370e+003,1.630105e+001
3.444298e+003,1.629361e+001
3.446227e+003,1.633384e+001
3.448155e+003,1.640286e+001
3.450084e+003,1.636899e+001
3.452012e+003,1.638612e+001
3.453941e+003,1.646314e+001
3.455869e+003,1.647185e+001
3.457798e+003,1.640203e+001
3.459726e+003,1.634833e+001
3.461655e+003,1.636516e+001
3.463583e+003,1.645850e+001
3.465512e+003,1.647157e+001
3.467440e+003,1.645264e+001
3.469369e+003,1.640179e+001
3.471297e+003,1.636099e+001
3.473226e+003,1.635985e+001
3.475154e+003,1.641721e+001
3.477083e+003,1.641533e+001
3.479011e+003,1.638252e+001
3.480940e+003,1.636554e+001
3.482868e+003,1.639916e+001
3.484797e+003,1.640306e+001
3.486725e+003,1.642315e+001
3.488654e+003,1.644376e+001
3.490582e+003,1.638864e+001
3.492511e+003,1.633380e+001
3.494439e+003,1.635369e+001
3.496368e+003,1.642093e+001
3.498296e+003,1.643685e+001
3.500225e+003,1.638824e+001
3.502153e+003,1.639137e+001
3.504082e+003,1.647749e+001
3.506010e+003,1.645514e+001
3.507939e+003,1.645367e+001
3.509867e+003,1.650775e+001
3.511796e+003,1.646288e+001
3.513724e+003,1.643528e+001
3.515653e+003,1.646297e+001
3.517581e+003,1.648262e+001
3.519510e+003,1.645774e+001
3.521438e+003,1.635327e+001
3.523367e+003,1.638442e+001
3.525295e+003,1.644596e+001
3.527224e+003,1.649337e+001
3.529152e+003,1.658431e+001
3.531081e+003,1.658369e+001
3.533009e+003,1.654425e+001
3.534938e+003,1.651169e+001
3.536866e+003,1.654365e+001
3.538795e+003,1.652682e+001
3.540723e+003,1.643987e+001
3.542652e+003,1.644448e+001
3.544580e+003,1.659905e+001
3.546509e+003,1.673551e+001
3.548437e+003,1.669037e+001
3.550366e+003,1.653942e+001
3.552294e+003,1.650450e+001
3.554223e+003,1.650583e+001
3.556151e+003,1.645428e+001
3.558080e+003,1.638613e+001
3.560008e+003,1.646856e+001
3.561937e+003,1.665104e+001
3.563865e+003,1.655694e+001
3.565794e+003,1.648666e+001
3.567722e+003,1.672151e+001
3.569651e+003,1.667218e+001
3.571579e+003,1.661417e+001
3.573508e+003,1.665253e+001
3.575436e+003,1.666837e+001
3.577365e+003,1.664123e+001
3.579293e+003,1.665522e+001
3.581222e+003,1.661339e+001
3.583150e+003,1.654386e+001
3.585079e+003,1.648367e+001
3.587007e+003,1.670896e+001
3.588936e+003,1.687514e+001
3.590864e+003,1.670181e+001
3.592793e+003,1.663026e+001
3.594721e+003,1.661998e+001
3.596650e+003,1.663365e+001
3.598578e+003,1.665176e+001
3.600507e+003,1.667242e+001
3.602435e+003,1.670258e+001
3.604364e+003,1.661409e+001
3.606292e+003,1.659655e+001
3.608221e+003,1.682224e+001
3.610149e+003,1.690307e+001
3.612078e+003,1.689094e+001
3.614006e+003,1.697121e+001
3.615935e+003,1.684836e+001
3.617863e+003,1.682350e+001
3.619792e+003,1.692754e+001
3.621720e+003,1.683768e+001
3.623649e+003,1.663041e+001
3.625577e+003,1.644126e+001
3.627506e+003,1.645628e+001
3.629434e+003,1.708148e+001
3.631363e+003,1.694093e+001
3.633291e+003,1.684987e+001
3.635220e+003,1.685276e+001
3.637148e+003,1.683323e+001
3.639077e+003,1.682815e+001
3.641005e+003,1.679524e+001
3.642934e+003,1.676838e+001
3.644862e+003,1.665033e+001
3.646791e+003,1.668131e+001
3.648719e+003,1.698568e+001
3.650648e+003,1.736035e+001
3.652576e+003,1.709014e+001
3.654505e+003,1.685550e+001
3.656433e+003,1.707639e+001
3.658362e+003,1.706292e+001
3.660290e+003,1.695067e+001
3.662219e+003,1.687102e+001
3.664147e+003,1.683030e+001
3.666076e+003,1.674904e+001
3.668004e+003,1.665443e+001
3.669933e+003,1.697704e+001
3.671861e+003,1.704736e+001
3.673790e+003,1.691117e+001
3.675718e+003,1.745480e+001
3.677647e+003,1.709525e+001
3.679575e+003,1.697492e+001
3.681504e+003,1.691397e+001
3.683432e+003,1.680987e+001
3.685361e+003,1.672054e+001
3.687289e+003,1.679326e+001
3.689218e+003,1.725896e+001
3.691146e+003,1.711714e+001
3.693075e+003,1.681013e+001
3.695003e+003,1.667030e+001
3.696932e+003,1.671407e+001
3.698860e+003,1.667147e+001
3.700789e+003,1.676435e+001
3.702717e+003,1.686954e+001
3.704646e+003,1.675756e+001
3.706574e+003,1.666294e+001
3.708503e+003,1.661041e+001
3.710431e+003,1.674698e+001
3.712360e+003,1.716062e+001
3.714288e+003,1.713343e+001
3.716217e+003,1.687464e+001
3.718145e+003,1.673813e+001
3.720074e+003,1.668634e+001
3.722002e+003,1.669900e+001
3.723931e+003,1.671087e+001
3.725859e+003,1.677321e+001
3.727788e+003,1.677377e+001
3.729716e+003,1.654840e+001
3.731645e+003,1.659227e+001
3.733573e+003,1.673016e+001
3.735502e+003,1.713359e+001
3.737430e+003,1.710052e+001
3.739359e+003,1.679451e+001
3.741287e+003,1.660533e+001
3.743216e+003,1.660352e+001
3.745144e+003,1.708273e+001
3.747073e+003,1.681696e+001
3.749001e+003,1.687766e+001
3.750930e+003,1.727552e+001
3.752858e+003,1.722503e+001
3.754787e+003,1.692043e+001
3.756715e+003,1.683992e+001
3.758644e+003,1.698263e+001
3.760572e+003,1.700678e+001
3.762500e+003,1.684253e+001
3.764429e+003,1.686611e+001
3.766358e+003,1.696652e+001
3.768286e+003,1.693186e+001
3.770215e+003,1.701929e+001
3.772143e+003,1.685806e+001
3.774072e+003,1.676245e+001
3.776000e+003,1.672185e+001
3.777928e+003,1.671267e+001
3.779857e+003,1.689094e+001
3.781786e+003,1.681312e+001
3.783714e+003,1.676140e+001
3.785643e+003,1.678940e+001
3.787571e+003,1.674948e+001
3.789500e+003,1.675571e+001
3.791428e+003,1.678266e+001
3.793356e+003,1.673515e+001
3.795285e+003,1.668874e+001
3.797214e+003,1.682019e+001
3.799142e+003,1.669036e+001
3.801071e+003,1.690823e+001
3.802999e+003,1.694786e+001
3.804927e+003,1.663601e+001
3.806856e+003,1.685787e+001
3.808785e+003,1.691868e+001
3.810713e+003,1.672920e+001
3.812642e+003,1.659714e+001
3.814570e+003,1.655215e+001
3.816499e+003,1.686191e+001
3.818427e+003,1.665615e+001
3.820355e+003,1.664474e+001
3.822284e+003,1.691804e+001
3.824213e+003,1.669370e+001
3.826141e+003,1.668879e+001
3.828070e+003,1.665773e+001
3.829998e+003,1.650442e+001
3.831927e+003,1.657978e+001
3.833855e+003,1.660512e+001
3.835783e+003,1.665660e+001
3.837712e+003,1.676479e+001
3.839641e+003,1.677116e+001
3.841569e+003,1.674129e+001
3.843498e+003,1.675542e+001
3.845426e+003,1.661872e+001
3.847354e+003,1.647863e+001
3.849283e+003,1.648363e+001
3.851211e+003,1.640893e+001
3.853140e+003,1.681211e+001
3.855069e+003,1.698039e+001
3.856997e+003,1.684303e+001
3.858926e+003,1.661798e+001
3.860854e+003,1.640939e+001
3.862782e+003,1.642345e+001
3.864711e+003,1.660388e+001
3.866639e+003,1.655660e+001
3.868568e+003,1.653888e+001
3.870497e+003,1.696092e+001
3.872425e+003,1.667817e+001
3.874354e+003,1.662868e+001
3.876282e+003,1.650835e+001
3.878210e+003,1.646648e+001
3.880139e+003,1.669847e+001
3.882067e+003,1.664776e+001
3.883996e+003,1.640714e+001
3.885925e+003,1.660277e+001
3.887853e+003,1.647171e+001
3.889781e+003,1.637231e+001
3.891710e+003,1.665758e+001
3.893638e+003,1.659649e+001
3.895567e+003,1.633291e+001
3.897495e+003,1.627680e+001
3.899424e+003,1.648641e+001
3.901353e+003,1.658429e+001
3.903281e+003,1.656315e+001
3.905209e+003,1.658712e+001
3.907138e+003,1.647850e+001
3.909066e+003,1.636524e+001
3.910995e+003,1.636091e+001
3.912924e+003,1.637990e+001
3.914852e+003,1.633811e+001
3.916781e+003,1.636220e+001
3.918709e+003,1.634783e+001
3.920637e+003,1.631938e+001
3.922566e+003,1.634249e+001
3.924494e+003,1.648789e+001
3.926423e+003,1.640829e+001
3.928352e+003,1.630632e+001
3.930280e+003,1.642089e+001
3.932208e+003,1.642653e+001
3.934137e+003,1.625881e+001
3.936065e+003,1.628767e+001
3.937994e+003,1.640710e+001
3.939922e+003,1.633522e+001
3.941851e+003,1.631351e+001
3.943780e+003,1.632228e+001
3.945708e+003,1.628493e+001
3.947636e+003,1.632440e+001
3.949565e+003,1.632964e+001
3.951493e+003,1.628055e+001
3.953422e+003,1.623686e+001
3.955350e+003,1.618436e+001
3.957279e+003,1.625149e+001
3.959208e+003,1.628899e+001
3.961136e+003,1.629430e+001
3.963064e+003,1.631829e+001
3.964993e+003,1.623179e+001
3.966921e+003,1.623361e+001
3.968850e+003,1.627367e+001
3.970778e+003,1.626283e+001
3.972707e+003,1.617195e+001
3.974635e+003,1.615214e+001
3.976564e+003,1.616483e+001
3.978492e+003,1.619420e+001
3.980421e+003,1.625239e+001
3.982349e+003,1.629151e+001
3.984278e+003,1.625404e+001
3.986206e+003,1.622067e+001
3.988135e+003,1.622128e+001
3.990063e+003,1.620488e+001
3.991992e+003,1.616246e+001
3.993920e+003,1.612321e+001
3.995849e+003,1.611524e+001
3.997777e+003,1.608605e+001
3.999706e+003,1.598654e+001
