3.991992e+002,1.000000e+002
4.011277e+002,9.537762e+001
4.030562e+002,9.230041e+001
4.049847e+002,8.973788e+001
4.069132e+002,8.673817e+001
4.088417e+002,8.270033e+001
4.107702e+002,8.062515e+001
4.126987e+002,7.821059e+001
4.146272e+002,7.537345e+001
4.165557e+002,7.271172e+001
4.184842e+002,6.976940e+001
4.204127e+002,6.491036e+001
4.223412e+002,6.249871e+001
4.242697e+002,5.989164e+001
4.261982e+002,5.773430e+001
4.281267e+002,5.509295e+001
4.300552e+002,5.247235e+001
4.319837e+002,4.983597e+001
4.339122e+002,4.797114e+001
4.358407e+002,4.601061e+001
4.377692e+002,4.468610e+001
4.396977e+002,4.386991e+001
4.416262e+002,4.339607e+001
4.435547e+002,4.262874e+001
4.454832e+002,4.227881e+001
4.474117e+002,4.205395e+001
4.493401e+002,4.175853e+001
4.512686e+002,4.131799e+001
4.531971e+002,4.101923e+001
4.551256e+002,4.053258e+001
4.570541e+002,3.998240e+001
4.589826e+002,3.846847e+001
4.609111e+002,3.728878e+001
4.628396e+002,3.631974e+001
4.647681e+002,3.643719e+001
4.666966e+002,3.668102e+001
4.686251e+002,3.678356e+001
4.705536e+002,3.765556e+001
4.724821e+002,3.981768e+001
4.744106e+002,4.160250e+001
4.763391e+002,4.337600e+001
4.782676e+002,4.538245e+001
4.801961e+002,4.723415e+001
4.821246e+002,4.878057e+001
4.840531e+002,5.071210e+001
4.859816e+002,5.248365e+001
4.879101e+002,5.408108e+001
4.898386e+002,5.578281e+001
4.917671e+002,5.760192e+001
4.936956e+002,5.915164e+001
4.956241e+002,6.071196e+001
4.975526e+002,6.246247e+001
4.994811e+002,6.482706e+001
5.014096e+002,6.762159e+001
5.033381e+002,7.004379e+001
5.052666e+002,7.188658e+001
5.071951e+002,7.390163e+001
5.091236e+002,7.565214e+001
5.110521e+002,7.764425e+001
5.129806e+002,8.001460e+001
5.149091e+002,8.270189e+001
5.168376e+002,8.521465e+001
5.187661e+002,8.691466e+001
5.206946e+002,8.747741e+001
5.226231e+002,8.811156e+001
5.245516e+002,8.934990e+001
5.264801e+002,9.106452e+001
5.284086e+002,9.210764e+001
5.303371e+002,9.259918e+001
5.322656e+002,9.251779e+001
5.341941e+002,9.215995e+001
5.361226e+002,9.193577e+001
5.380511e+002,9.193182e+001
5.399796e+002,9.226094e+001
5.419081e+002,9.240232e+001
5.438365e+002,9.161182e+001
5.457651e+002,9.015781e+001
5.476936e+002,8.825449e+001
5.496221e+002,8.646195e+001
5.515506e+002,8.487843e+001
5.534791e+002,8.361807e+001
5.554076e+002,8.195626e+001
5.573361e+002,7.981394e+001
5.592646e+002,7.802601e+001
5.611931e+002,7.716633e+001
5.631216e+002,7.740712e+001
5.650500e+002,7.853757e+001
5.669786e+002,7.985999e+001
5.689070e+002,8.068013e+001
5.708356e+002,8.064774e+001
5.727640e+002,8.016610e+001
5.746926e+002,7.992415e+001
5.766210e+002,8.019827e+001
5.785496e+002,8.061183e+001
5.804780e+002,8.123528e+001
5.824066e+002,8.139312e+001
5.843350e+002,8.139342e+001
5.862635e+002,8.149714e+001
5.881920e+002,8.198519e+001
5.901205e+002,8.309042e+001
5.920490e+002,8.436546e+001
5.939775e+002,8.472900e+001
5.959060e+002,8.437181e+001
5.978345e+002,8.337186e+001
5.997631e+002,8.243741e+001
6.016915e+002,8.227328e+001
6.036201e+002,8.298273e+001
6.055485e+002,8.404260e+001
6.074771e+002,8.457409e+001
6.094055e+002,8.439240e+001
6.113340e+002,8.390971e+001
6.132625e+002,8.379978e+001
6.151910e+002,8.423765e+001
6.171195e+002,8.484515e+001
6.190480e+002,8.575139e+001
6.209765e+002,8.608482e+001
6.229050e+002,8.543813e+001
6.248335e+002,8.479102e+001
6.267620e+002,8.464952e+001
6.286905e+002,8.501583e+001
6.306190e+002,8.551387e+001
6.325475e+002,8.550628e+001
6.344760e+002,8.453423e+001
6.364045e+002,8.284185e+001
6.383330e+002,8.111826e+001
6.402615e+002,7.981480e+001
6.421900e+002,7.870193e+001
6.441185e+002,7.746953e+001
6.460470e+002,7.550170e+001
6.479755e+002,7.299529e+001
6.499040e+002,7.110249e+001
6.518325e+002,7.003934e+001
6.537610e+002,6.936672e+001
6.556895e+002,6.894750e+001
6.576180e+002,6.815720e+001
6.595465e+002,6.672349e+001
6.614750e+002,6.465775e+001
6.634035e+002,6.273590e+001
6.653320e+002,6.100177e+001
6.672605e+002,5.721301e+001
6.691890e+002,5.372939e+001
6.711175e+002,5.416821e+001
6.730460e+002,5.242714e+001
6.749745e+002,5.003396e+001
6.769030e+002,4.829173e+001
6.788315e+002,4.767230e+001
6.807599e+002,4.769710e+001
6.826885e+002,4.803080e+001
6.846169e+002,4.818787e+001
6.865455e+002,4.796460e+001
6.884739e+002,4.732766e+001
6.904025e+002,4.683960e+001
6.923309e+002,4.681622e+001
6.942595e+002,4.750762e+001
6.961880e+002,4.838781e+001
6.981165e+002,4.932147e+001
7.000450e+002,5.011112e+001
7.019734e+002,5.085367e+001
7.039020e+002,5.167157e+001
7.058304e+002,5.264821e+001
7.077590e+002,5.360953e+001
7.096874e+002,5.422003e+001
7.116160e+002,5.425643e+001
7.135444e+002,5.398086e+001
7.154730e+002,5.382729e+001
7.174014e+002,5.409492e+001
7.193300e+002,5.475319e+001
7.212584e+002,5.613537e+001
7.231870e+002,5.764478e+001
7.251154e+002,5.851537e+001
7.270439e+002,5.893930e+001
7.289724e+002,5.927221e+001
7.309009e+002,6.000544e+001
7.328294e+002,6.118371e+001
7.347579e+002,6.242009e+001
7.366864e+002,6.327444e+001
7.386149e+002,6.364268e+001
7.405434e+002,6.379349e+001
7.424719e+002,6.428614e+001
7.444004e+002,6.510467e+001
7.463289e+002,6.624846e+001
7.482574e+002,6.740559e+001
7.501859e+002,6.820455e+001
7.521144e+002,6.852175e+001
7.540429e+002,6.870026e+001
7.559714e+002,6.912899e+001
7.578999e+002,7.013993e+001
7.598284e+002,7.141068e+001
7.617569e+002,7.262366e+001
7.636854e+002,7.338933e+001
7.656139e+002,7.376619e+001
7.675424e+002,7.403948e+001
7.694709e+002,7.476213e+001
7.713994e+002,7.596932e+001
7.733279e+002,7.749213e+001
7.752564e+002,7.870208e+001
7.771849e+002,7.942596e+001
7.791134e+002,7.979926e+001
7.810419e+002,8.033061e+001
7.829704e+002,8.135327e+001
7.848989e+002,8.293609e+001
7.868274e+002,8.464609e+001
7.887559e+002,8.587408e+001
7.906844e+002,8.634713e+001
7.926129e+002,8.655090e+001
7.945414e+002,8.697770e+001
7.964699e+002,8.812564e+001
7.983984e+002,8.961302e+001
8.003269e+002,9.098835e+001
8.022554e+002,9.167101e+001
8.041839e+002,9.172826e+001
8.061124e+002,9.153727e+001
8.080409e+002,9.174855e+001
8.099694e+002,9.245949e+001
8.118979e+002,9.349393e+001
8.138264e+002,9.409887e+001
8.157549e+002,9.393027e+001
8.176833e+002,9.315050e+001
8.196119e+002,9.249859e+001
8.215403e+002,9.233247e+001
8.234689e+002,9.272123e+001
8.253973e+002,9.299312e+001
8.273259e+002,9.281728e+001
8.292543e+002,9.192412e+001
8.311829e+002,9.077470e+001
8.331113e+002,8.980278e+001
8.350399e+002,8.937120e+001
8.369683e+002,8.919708e+001
8.388969e+002,8.902623e+001
8.408253e+002,8.829379e+001
8.427538e+002,8.703371e+001
8.446824e+002,8.555363e+001
8.466108e+002,8.449648e+001
8.485394e+002,8.387963e+001
8.504678e+002,8.347115e+001
8.523964e+002,8.274915e+001
8.543248e+002,8.159652e+001
8.562534e+002,8.008909e+001
8.581818e+002,7.855389e+001
8.601104e+002,7.733266e+001
8.620388e+002,7.649534e+001
8.639673e+002,7.558114e+001
8.658958e+002,7.433646e+001
8.678243e+002,7.270023e+001
8.697528e+002,7.091287e+001
8.716813e+002,6.917062e+001
8.736098e+002,6.765157e+001
8.755383e+002,6.625620e+001
8.774668e+002,6.478547e+001
8.793953e+002,6.298747e+001
8.813238e+002,6.091567e+001
8.832523e+002,5.874612e+001
8.851808e+002,5.676570e+001
8.871093e+002,5.497210e+001
8.890378e+002,5.324423e+001
8.909663e+002,5.136452e+001
8.928948e+002,4.933789e+001
8.948233e+002,4.726980e+001
8.967518e+002,4.526937e+001
8.986803e+002,4.341919e+001
9.006088e+002,4.173730e+001
9.025373e+002,4.014567e+001
9.044658e+002,3.856332e+001
9.063943e+002,3.694727e+001
9.083228e+002,3.528134e+001
9.102513e+002,3.369809e+001
9.121798e+002,3.225086e+001
9.141083e+002,3.094290e+001
9.160368e+002,2.969605e+001
9.179653e+002,2.844785e+001
9.198938e+002,2.720259e+001
9.218223e+002,2.597340e+001
9.237508e+002,2.475319e+001
9.256793e+002,2.362394e+001
9.276078e+002,2.254247e+001
9.295363e+002,2.148348e+001
9.314648e+002,2.042788e+001
9.333932e+002,1.933649e+001
9.353218e+002,1.823614e+001
9.372502e+002,1.728881e+001
9.391788e+002,1.654435e+001
9.411072e+002,1.605409e+001
9.430358e+002,1.567663e+001
9.449643e+002,1.532287e+001
9.468928e+002,1.494157e+001
9.488213e+002,1.459268e+001
9.507498e+002,1.423624e+001
9.526783e+002,1.387017e+001
9.546068e+002,1.353092e+001
9.565353e+002,1.330104e+001
9.584637e+002,1.309145e+001
9.603923e+002,1.293131e+001
9.623207e+002,1.277501e+001
9.642493e+002,1.263375e+001
9.661777e+002,1.244051e+001
9.681063e+002,1.222645e+001
9.700347e+002,1.196039e+001
9.719633e+002,1.170437e+001
9.738917e+002,1.144134e+001
9.758203e+002,1.122516e+001
9.777487e+002,1.103678e+001
9.796772e+002,1.094644e+001
9.816057e+002,1.086565e+001
9.835342e+002,1.078059e+001
9.854627e+002,1.067222e+001
9.873912e+002,1.057230e+001
9.893197e+002,1.046330e+001
9.912482e+002,1.041520e+001
9.931768e+002,1.036276e+001
9.951052e+002,1.031961e+001
9.970338e+002,1.026434e+001
9.989622e+002,1.026108e+001
1.000891e+003,1.021950e+001
1.002819e+003,1.012792e+001
1.004748e+003,1.003683e+001
1.006676e+003,1.002434e+001
1.008605e+003,1.000000e+001
1.010533e+003,1.002448e+001
1.012462e+003,1.006352e+001
1.014390e+003,1.011173e+001
1.016319e+003,1.015550e+001
1.018247e+003,1.025272e+001
1.020176e+003,1.034935e+001
1.022104e+003,1.047593e+001
1.024033e+003,1.059540e+001
1.025961e+003,1.076265e+001
1.027890e+003,1.090252e+001
1.029818e+003,1.103853e+001
1.031747e+003,1.118895e+001
1.033675e+003,1.138988e+001
1.035604e+003,1.156352e+001
1.037532e+003,1.175756e+001
1.039461e+003,1.192217e+001
1.041389e+003,1.208776e+001
1.043318e+003,1.225822e+001
1.045246e+003,1.246589e+001
1.047175e+003,1.265776e+001
1.049103e+003,1.287536e+001
1.051032e+003,1.306925e+001
1.052960e+003,1.328905e+001
1.054889e+003,1.347634e+001
1.056817e+003,1.366316e+001
1.058746e+003,1.384665e+001
1.060674e+003,1.407510e+001
1.062603e+003,1.427864e+001
1.064531e+003,1.449561e+001
1.066460e+003,1.467997e+001
1.068388e+003,1.487612e+001
1.070317e+003,1.502582e+001
1.072245e+003,1.521665e+001
1.074174e+003,1.540785e+001
1.076102e+003,1.561197e+001
1.078031e+003,1.576836e+001
1.079959e+003,1.591929e+001
1.081888e+003,1.604249e+001
1.083816e+003,1.616402e+001
1.085745e+003,1.624776e+001
1.087673e+003,1.637033e+001
1.089602e+003,1.650451e+001
1.091530e+003,1.665930e+001
1.093459e+003,1.678674e+001
1.095387e+003,1.695713e+001
1.097316e+003,1.713191e+001
1.099244e+003,1.735651e+001
1.101173e+003,1.754292e+001
1.103101e+003,1.777203e+001
1.105030e+003,1.799543e+001
1.106958e+003,1.819236e+001
1.108887e+003,1.836385e+001
1.110815e+003,1.857056e+001
1.112744e+003,1.876724e+001
1.114672e+003,1.896937e+001
1.116601e+003,1.915176e+001
1.118529e+003,1.935160e+001
1.120458e+003,1.950611e+001
1.122386e+003,1.965409e+001
1.124315e+003,1.981688e+001
1.126243e+003,1.999698e+001
1.128172e+003,2.018185e+001
1.130100e+003,2.038110e+001
1.132029e+003,2.055751e+001
1.133957e+003,2.073361e+001
1.135886e+003,2.091563e+001
1.137814e+003,2.114602e+001
1.139743e+003,2.135786e+001
1.141671e+003,2.161844e+001
1.143600e+003,2.188346e+001
1.145528e+003,2.213960e+001
1.147457e+003,2.235903e+001
1.149385e+003,2.259519e+001
1.151314e+003,2.284121e+001
1.153242e+003,2.313901e+001
1.155171e+003,2.348784e+001
1.157099e+003,2.384537e+001
1.159028e+003,2.413874e+001
1.160956e+003,2.442973e+001
1.162885e+003,2.471423e+001
1.164813e+003,2.504097e+001
1.166742e+003,2.540423e+001
1.168670e+003,2.580289e+001
1.170599e+003,2.618855e+001
1.172527e+003,2.654344e+001
1.174456e+003,2.685139e+001
1.176384e+003,2.719947e+001
1.178313e+003,2.757998e+001
1.180241e+003,2.795716e+001
1.182170e+003,2.834651e+001
1.184098e+003,2.875201e+001
1.186027e+003,2.909683e+001
1.187955e+003,2.942450e+001
1.189884e+003,2.971739e+001
1.191812e+003,3.005621e+001
1.193741e+003,3.040935e+001
1.195669e+003,3.075399e+001
1.197598e+003,3.105711e+001
1.199526e+003,3.132984e+001
1.201455e+003,3.157476e+001
1.203383e+003,3.182132e+001
1.205312e+003,3.206502e+001
1.207240e+003,3.235646e+001
1.209169e+003,3.266249e+001
1.211097e+003,3.292392e+001
1.213026e+003,3.313128e+001
1.214954e+003,3.331055e+001
1.216883e+003,3.350578e+001
1.218811e+003,3.375212e+001
1.220740e+003,3.400120e+001
1.222668e+003,3.421918e+001
1.224597e+003,3.440569e+001
1.226525e+003,3.457896e+001
1.228453e+003,3.470838e+001
1.230382e+003,3.485926e+001
1.232311e+003,3.506548e+001
1.234239e+003,3.530238e+001
1.236167e+003,3.552522e+001
1.238096e+003,3.567844e+001
1.240025e+003,3.577371e+001
1.241953e+003,3.586480e+001
1.243882e+003,3.601510e+001
1.245810e+003,3.622952e+001
1.247739e+003,3.643975e+001
1.249667e+003,3.659940e+001
1.251596e+003,3.669933e+001
1.253524e+003,3.680425e+001
1.255453e+003,3.688406e+001
1.257381e+003,3.697820e+001
1.259310e+003,3.717125e+001
1.261238e+003,3.737004e+001
1.263167e+003,3.749879e+001
1.265095e+003,3.759136e+001
1.267024e+003,3.765167e+001
1.268952e+003,3.773304e+001
1.270880e+003,3.785372e+001
1.272809e+003,3.800693e+001
1.274738e+003,3.814891e+001
1.276666e+003,3.826900e+001
1.278594e+003,3.835019e+001
1.280523e+003,3.840107e+001
1.282452e+003,3.845453e+001
1.284380e+003,3.856888e+001
1.286308e+003,3.872156e+001
1.288237e+003,3.888641e+001
1.290166e+003,3.896825e+001
1.292094e+003,3.898302e+001
1.294022e+003,3.898817e+001
1.295951e+003,3.904618e+001
1.297880e+003,3.913453e+001
1.299808e+003,3.926606e+001
1.301736e+003,3.939986e+001
1.303665e+003,3.947157e+001
1.305594e+003,3.948531e+001
1.307522e+003,3.951404e+001
1.309450e+003,3.957314e+001
1.311379e+003,3.967517e+001
1.313307e+003,3.983108e+001
1.315236e+003,3.989921e+001
1.317164e+003,3.994815e+001
1.319093e+003,4.000805e+001
1.321021e+003,3.998065e+001
1.322950e+003,3.997271e+001
1.324878e+003,4.006828e+001
1.326807e+003,4.017680e+001
1.328735e+003,4.027313e+001
1.330664e+003,4.028508e+001
1.332592e+003,4.027247e+001
1.334521e+003,4.026879e+001
1.336449e+003,4.034184e+001
1.338378e+003,4.058172e+001
1.340307e+003,4.082479e+001
1.342235e+003,4.071209e+001
1.344163e+003,4.062777e+001
1.346092e+003,4.060452e+001
1.348021e+003,4.060594e+001
1.349949e+003,4.066568e+001
1.351877e+003,4.073903e+001
1.353806e+003,4.086257e+001
1.355734e+003,4.093016e+001
1.357663e+003,4.088058e+001
1.359591e+003,4.085612e+001
1.361520e+003,4.098487e+001
1.363448e+003,4.118647e+001
1.365377e+003,4.109259e+001
1.367305e+003,4.111483e+001
1.369234e+003,4.120451e+001
1.371162e+003,4.111521e+001
1.373091e+003,4.115684e+001
1.375019e+003,4.134235e+001
1.376948e+003,4.124076e+001
1.378876e+003,4.125723e+001
1.380805e+003,4.127481e+001
1.382733e+003,4.125714e+001
1.384662e+003,4.120562e+001
1.386590e+003,4.135121e+001
1.388519e+003,4.146593e+001
1.390447e+003,4.137951e+001
1.392376e+003,4.138255e+001
1.394304e+003,4.166706e+001
1.396233e+003,4.182024e+001
1.398161e+003,4.172687e+001
1.400090e+003,4.169042e+001
1.402018e+003,4.146144e+001
1.403947e+003,4.156041e+001
1.405875e+003,4.178001e+001
1.407804e+003,4.169485e+001
1.409732e+003,4.164974e+001
1.411661e+003,4.168274e+001
1.413589e+003,4.161832e+001
1.415518e+003,4.162294e+001
1.417446e+003,4.185247e+001
1.419375e+003,4.231162e+001
1.421303e+003,4.208974e+001
1.423232e+003,4.195608e+001
1.425160e+003,4.196105e+001
1.427089e+003,4.175879e+001
1.429017e+003,4.189486e+001
1.430946e+003,4.207242e+001
1.432874e+003,4.204339e+001
1.434803e+003,4.199578e+001
1.436731e+003,4.239907e+001
1.438660e+003,4.220296e+001
1.440588e+003,4.191520e+001
1.442517e+003,4.193046e+001
1.444445e+003,4.199485e+001
1.446374e+003,4.209230e+001
1.448302e+003,4.229426e+001
1.450231e+003,4.215355e+001
1.452159e+003,4.205169e+001
1.454088e+003,4.200810e+001
1.456016e+003,4.240393e+001
1.457945e+003,4.331057e+001
1.459873e+003,4.270658e+001
1.461802e+003,4.217131e+001
1.463730e+003,4.214618e+001
1.465659e+003,4.236477e+001
1.467587e+003,4.214095e+001
1.469516e+003,4.201104e+001
1.471444e+003,4.240307e+001
1.473373e+003,4.304699e+001
1.475301e+003,4.273159e+001
1.477230e+003,4.248492e+001
1.479158e+003,4.220520e+001
1.481087e+003,4.224028e+001
1.483015e+003,4.228434e+001
1.484944e+003,4.226312e+001
1.486872e+003,4.249521e+001
1.488801e+003,4.285357e+001
1.490729e+003,4.294056e+001
1.492658e+003,4.241356e+001
1.494586e+003,4.218817e+001
1.496515e+003,4.262595e+001
1.498443e+003,4.286659e+001
1.500372e+003,4.270699e+001
1.502300e+003,4.242674e+001
1.504229e+003,4.222058e+001
1.506157e+003,4.310785e+001
1.508086e+003,4.405958e+001
1.510014e+003,4.313257e+001
1.511943e+003,4.275354e+001
1.513871e+003,4.256738e+001
1.515800e+003,4.270408e+001
1.517728e+003,4.294351e+001
1.519657e+003,4.265667e+001
1.521585e+003,4.334053e+001
1.523514e+003,4.315211e+001
1.525442e+003,4.293328e+001
1.527371e+003,4.290631e+001
1.529299e+003,4.259227e+001
1.531228e+003,4.231312e+001
1.533156e+003,4.270015e+001
1.535085e+003,4.273209e+001
1.537013e+003,4.229598e+001
1.538942e+003,4.279302e+001
1.540870e+003,4.402592e+001
1.542799e+003,4.332593e+001
1.544727e+003,4.293934e+001
1.546656e+003,4.245630e+001
1.548584e+003,4.225204e+001
1.550513e+003,4.247955e+001
1.552441e+003,4.232367e+001
1.554370e+003,4.248314e+001
1.556298e+003,4.243724e+001
1.558227e+003,4.312621e+001
1.560155e+003,4.370159e+001
1.562084e+003,4.257449e+001
1.564012e+003,4.233279e+001
1.565941e+003,4.233366e+001
1.567869e+003,4.216822e+001
1.569798e+003,4.254034e+001
1.571726e+003,4.229211e+001
1.573655e+003,4.199741e+001
1.575583e+003,4.239669e+001
1.577512e+003,4.268700e+001
1.579440e+003,4.220261e+001
1.581369e+003,4.200336e+001
1.583297e+003,4.191829e+001
1.585226e+003,4.187230e+001
1.587154e+003,4.185011e+001
1.589083e+003,4.189021e+001
1.591011e+003,4.192251e+001
1.592940e+003,4.191823e+001
1.594868e+003,4.191969e+001
1.596797e+003,4.181898e+001
1.598725e+003,4.168645e+001
1.600654e+003,4.169479e+001
1.602582e+003,4.176601e+001
1.604511e+003,4.175745e+001
1.606439e+003,4.169765e+001
1.608368e+003,4.171617e+001
1.610296e+003,4.163136e+001
1.612225e+003,4.148125e+001
1.614153e+003,4.135371e+001
1.616082e+003,4.173013e+001
1.618010e+003,4.199350e+001
1.619939e+003,4.151783e+001
1.621867e+003,4.141620e+001
1.623796e+003,4.165072e+001
1.625724e+003,4.132821e+001
1.627653e+003,4.132128e+001
1.629581e+003,4.133446e+001
1.631510e+003,4.108957e+001
1.633438e+003,4.096241e+001
1.635367e+003,4.155368e+001
1.637295e+003,4.181703e+001
1.639224e+003,4.127862e+001
1.641152e+003,4.112603e+001
1.643081e+003,4.103654e+001
1.645009e+003,4.111293e+001
1.646938e+003,4.195966e+001
1.648866e+003,4.169183e+001
1.650795e+003,4.100129e+001
1.652723e+003,4.169383e+001
1.654652e+003,4.225968e+001
1.656580e+003,4.144807e+001
1.658509e+003,4.108627e+001
1.660437e+003,4.099730e+001
1.662366e+003,4.125356e+001
1.664294e+003,4.125529e+001
1.666223e+003,4.090709e+001
1.668151e+003,4.109224e+001
1.670080e+003,4.168547e+001
1.672008e+003,4.148681e+001
1.673937e+003,4.120128e+001
1.675865e+003,4.148495e+001
1.677794e+003,4.118941e+001
1.679722e+003,4.117857e+001
1.681651e+003,4.116412e+001
1.683579e+003,4.174019e+001
1.685508e+003,4.219123e+001
1.687436e+003,4.149980e+001
1.689365e+003,4.135923e+001
1.691293e+003,4.122592e+001
1.693222e+003,4.097462e+001
1.695150e+003,4.134664e+001
1.697079e+003,4.195567e+001
1.699007e+003,4.165549e+001
1.700936e+003,4.206679e+001
1.702864e+003,4.150248e+001
1.704793e+003,4.139460e+001
1.706721e+003,4.158331e+001
1.708650e+003,4.133751e+001
1.710578e+003,4.125829e+001
1.712507e+003,4.115517e+001
1.714435e+003,4.133641e+001
1.716364e+003,4.172718e+001
1.718292e+003,4.205819e+001
1.720221e+003,4.149247e+001
1.722149e+003,4.120004e+001
1.724078e+003,4.125808e+001
1.726006e+003,4.112850e+001
1.727935e+003,4.101824e+001
1.729863e+003,4.113892e+001
1.731792e+003,4.114198e+001
1.733720e+003,4.170724e+001
1.735649e+003,4.180805e+001
1.737577e+003,4.122539e+001
1.739506e+003,4.134974e+001
1.741434e+003,4.131403e+001
1.743363e+003,4.128088e+001
1.745291e+003,4.127950e+001
1.747220e+003,4.136412e+001
1.749148e+003,4.157599e+001
1.751077e+003,4.163301e+001
1.753005e+003,4.132743e+001
1.754934e+003,4.099429e+001
1.756862e+003,4.119851e+001
1.758791e+003,4.114107e+001
1.760719e+003,4.117407e+001
1.762648e+003,4.145261e+001
1.764576e+003,4.114734e+001
1.766505e+003,4.096907e+001
1.768433e+003,4.111009e+001
1.770362e+003,4.111256e+001
1.772290e+003,4.160529e+001
1.774219e+003,4.150405e+001
1.776147e+003,4.121169e+001
1.778076e+003,4.104200e+001
1.780004e+003,4.108050e+001
1.781933e+003,4.105026e+001
1.783861e+003,4.093570e+001
1.785790e+003,4.102009e+001
1.787718e+003,4.094402e+001
1.789647e+003,4.092045e+001
1.791575e+003,4.125093e+001
1.793504e+003,4.136361e+001
1.795432e+003,4.107135e+001
1.797361e+003,4.097202e+001
1.799289e+003,4.103825e+001
1.801218e+003,4.121796e+001
1.803146e+003,4.107996e+001
1.805075e+003,4.090816e+001
1.807003e+003,4.080771e+001
1.808932e+003,4.082605e+001
1.810860e+003,4.097617e+001
1.812789e+003,4.099662e+001
1.814717e+003,4.085133e+001
1.816646e+003,4.085977e+001
1.818574e+003,4.079049e+001
1.820503e+003,4.072031e+001
1.822431e+003,4.067663e+001
1.824360e+003,4.085624e+001
1.826288e+003,4.096200e+001
1.828217e+003,4.088267e+001
1.830145e+003,4.119314e+001
1.832074e+003,4.097295e+001
1.834002e+003,4.069027e+001
1.835931e+003,4.069834e+001
1.837859e+003,4.077274e+001
1.839788e+003,4.073517e+001
1.841716e+003,4.068366e+001
1.843645e+003,4.098055e+001
1.845573e+003,4.104516e+001
1.847502e+003,4.077133e+001
1.849430e+003,4.066383e+001
1.851359e+003,4.058565e+001
1.853287e+003,4.060511e+001
1.855216e+003,4.061470e+001
1.857144e+003,4.058179e+001
1.859073e+003,4.050623e+001
1.861001e+003,4.047371e+001
1.862930e+003,4.046405e+001
1.864858e+003,4.045876e+001
1.866786e+003,4.059156e+001
1.868715e+003,4.092460e+001
1.870644e+003,4.075886e+001
1.872572e+003,4.042010e+001
1.874500e+003,4.032622e+001
1.876429e+003,4.033448e+001
1.878358e+003,4.038202e+001
1.880286e+003,4.040306e+001
1.882215e+003,4.037193e+001
1.884143e+003,4.033318e+001
1.886072e+003,4.025718e+001
1.888000e+003,4.022938e+001
1.889929e+003,4.041100e+001
1.891857e+003,4.034061e+001
1.893786e+003,4.030175e+001
1.895714e+003,4.033948e+001
1.897643e+003,4.021299e+001
1.899571e+003,4.012058e+001
1.901500e+003,4.011668e+001
1.903428e+003,4.015211e+001
1.905357e+003,4.016422e+001
1.907285e+003,4.017831e+001
1.909214e+003,4.023994e+001
1.911142e+003,4.017383e+001
1.913071e+003,4.004137e+001
1.914999e+003,3.997382e+001
1.916927e+003,4.005402e+001
1.918856e+003,4.024390e+001
1.920785e+003,4.011643e+001
1.922713e+003,4.016712e+001
1.924641e+003,4.007600e+001
1.926570e+003,3.992321e+001
1.928499e+003,3.992301e+001
1.930427e+003,3.992991e+001
1.932355e+003,3.993410e+001
1.934284e+003,3.992240e+001
1.936213e+003,3.988060e+001
1.938141e+003,3.983300e+001
1.940069e+003,3.975459e+001
1.941998e+003,3.987911e+001
1.943927e+003,3.996389e+001
1.945855e+003,3.987569e+001
1.947783e+003,3.982929e+001
1.949712e+003,3.975016e+001
1.951641e+003,3.968156e+001
1.953569e+003,3.964148e+001
1.955497e+003,3.968004e+001
1.957426e+003,3.967834e+001
1.959354e+003,3.966924e+001
1.961283e+003,3.964746e+001
1.963211e+003,3.959654e+001
1.965140e+003,3.954698e+001
1.967068e+003,3.964886e+001
1.968997e+003,3.962219e+001
1.970925e+003,3.955151e+001
1.972854e+003,3.955617e+001
1.974782e+003,3.951346e+001
1.976711e+003,3.943539e+001
1.978639e+003,3.938042e+001
1.980568e+003,3.937811e+001
1.982496e+003,3.941077e+001
1.984425e+003,3.942025e+001
1.986354e+003,3.941181e+001
1.988282e+003,3.940348e+001
1.990210e+003,3.933638e+001
1.992139e+003,3.938196e+001
1.994068e+003,3.934911e+001
1.995996e+003,3.927454e+001
1.997924e+003,3.927863e+001
1.999853e+003,3.924457e+001
2.001781e+003,3.919586e+001
2.003710e+003,3.916169e+001
2.005638e+003,3.914116e+001
2.007567e+003,3.913975e+001
2.009495e+003,3.914215e+001
2.011424e+003,3.913007e+001
2.013352e+003,3.910646e+001
2.015281e+003,3.907397e+001
2.017209e+003,3.908800e+001
2.019138e+003,3.903110e+001
2.021066e+003,3.899568e+001
2.022995e+003,3.900200e+001
2.024923e+003,3.900301e+001
2.026852e+003,3.896582e+001
2.028780e+003,3.891481e+001
2.030709e+003,3.886531e+001
2.032637e+003,3.882898e+001
2.034566e+003,3.881995e+001
2.036494e+003,3.885527e+001
2.038423e+003,3.886469e+001
2.040351e+003,3.885482e+001
2.042280e+003,3.880194e+001
2.044208e+003,3.872987e+001
2.046137e+003,3.868580e+001
2.048065e+003,3.867176e+001
2.049994e+003,3.867717e+001
2.051922e+003,3.866596e+001
2.053851e+003,3.864082e+001
2.055779e+003,3.861131e+001
2.057708e+003,3.856997e+001
2.059636e+003,3.854634e+001
2.061565e+003,3.852195e+001
2.063493e+003,3.853016e+001
2.065422e+003,3.857254e+001
2.067350e+003,3.851316e+001
2.069279e+003,3.842495e+001
2.071207e+003,3.839928e+001
2.073136e+003,3.839040e+001
2.075064e+003,3.839706e+001
2.076993e+003,3.839162e+001
2.078921e+003,3.837748e+001
2.080850e+003,3.834194e+001
2.082778e+003,3.830072e+001
2.084707e+003,3.825252e+001
2.086635e+003,3.826197e+001
2.088564e+003,3.827718e+001
2.090492e+003,3.826677e+001
2.092421e+003,3.823394e+001
2.094349e+003,3.820042e+001
2.096278e+003,3.815266e+001
2.098206e+003,3.810597e+001
2.100135e+003,3.810760e+001
2.102063e+003,3.813305e+001
2.103992e+003,3.811330e+001
2.105920e+003,3.808368e+001
2.107849e+003,3.804421e+001
2.109777e+003,3.799962e+001
2.111706e+003,3.797804e+001
2.113634e+003,3.798425e+001
2.115563e+003,3.799607e+001
2.117491e+003,3.798472e+001
2.119420e+003,3.794381e+001
2.121348e+003,3.789578e+001
2.123277e+003,3.787088e+001
2.125205e+003,3.786200e+001
2.127134e+003,3.786643e+001
2.129062e+003,3.787439e+001
2.130991e+003,3.784437e+001
2.132919e+003,3.779401e+001
2.134848e+003,3.775433e+001
2.136776e+003,3.772126e+001
2.138705e+003,3.770157e+001
2.140633e+003,3.770983e+001
2.142562e+003,3.771791e+001
2.144490e+003,3.770164e+001
2.146419e+003,3.766453e+001
2.148347e+003,3.761462e+001
2.150276e+003,3.757866e+001
2.152204e+003,3.755889e+001
2.154133e+003,3.757432e+001
2.156061e+003,3.760501e+001
2.157990e+003,3.757960e+001
2.159918e+003,3.752029e+001
2.161847e+003,3.747374e+001
2.163775e+003,3.744869e+001
2.165704e+003,3.744488e+001
2.167632e+003,3.745558e+001
2.169561e+003,3.746917e+001
2.171489e+003,3.745450e+001
2.173418e+003,3.740161e+001
2.175346e+003,3.735617e+001
2.177275e+003,3.733284e+001
2.179203e+003,3.734494e+001
2.181132e+003,3.736170e+001
2.183060e+003,3.736946e+001
2.184989e+003,3.734949e+001
2.186917e+003,3.729307e+001
2.188846e+003,3.724230e+001
2.190774e+003,3.723667e+001
2.192703e+003,3.724812e+001
2.194631e+003,3.725312e+001
2.196560e+003,3.723441e+001
2.198488e+003,3.719843e+001
2.200417e+003,3.715110e+001
2.202345e+003,3.710944e+001
2.204274e+003,3.711522e+001
2.206202e+003,3.713444e+001
2.208131e+003,3.714317e+001
2.210059e+003,3.713949e+001
2.211988e+003,3.709235e+001
2.213916e+003,3.704198e+001
2.215845e+003,3.701814e+001
2.217773e+003,3.701824e+001
2.219702e+003,3.701797e+001
2.221630e+003,3.701829e+001
2.223559e+003,3.699954e+001
2.225487e+003,3.695835e+001
2.227416e+003,3.691703e+001
2.229344e+003,3.688449e+001
2.231273e+003,3.688704e+001
2.233201e+003,3.689369e+001
2.235130e+003,3.688901e+001
2.237058e+003,3.685954e+001
2.238987e+003,3.680039e+001
2.240915e+003,3.674751e+001
2.242844e+003,3.671732e+001
2.244772e+003,3.671449e+001
2.246701e+003,3.671245e+001
2.248629e+003,3.670076e+001
2.250558e+003,3.667528e+001
2.252486e+003,3.661242e+001
2.254415e+003,3.653660e+001
2.256343e+003,3.649232e+001
2.258272e+003,3.647046e+001
2.260200e+003,3.644252e+001
2.262129e+003,3.639970e+001
2.264057e+003,3.635254e+001
2.265986e+003,3.630348e+001
2.267914e+003,3.623230e+001
2.269843e+003,3.621798e+001
2.271771e+003,3.624673e+001
2.273700e+003,3.624209e+001
2.275628e+003,3.622749e+001
2.277557e+003,3.621717e+001
2.279485e+003,3.622950e+001
2.281414e+003,3.624693e+001
2.283342e+003,3.623251e+001
2.285271e+003,3.613443e+001
2.287199e+003,3.598075e+001
2.289128e+003,3.583571e+001
2.291056e+003,3.568422e+001
2.292985e+003,3.550085e+001
2.294913e+003,3.532428e+001
2.296842e+003,3.516025e+001
2.298770e+003,3.498791e+001
2.300699e+003,3.479413e+001
2.302627e+003,3.461466e+001
2.304556e+003,3.435250e+001
2.306484e+003,3.397978e+001
2.308413e+003,3.361069e+001
2.310341e+003,3.328255e+001
2.312270e+003,3.304736e+001
2.314198e+003,3.289438e+001
2.316127e+003,3.260156e+001
2.318055e+003,3.206912e+001
2.319984e+003,3.146791e+001
2.321912e+003,3.096077e+001
2.323841e+003,3.066447e+001
2.325769e+003,3.041475e+001
2.327698e+003,3.003797e+001
2.329626e+003,2.967646e+001
2.331555e+003,2.952330e+001
2.333483e+003,2.952542e+001
2.335412e+003,2.933672e+001
2.337340e+003,2.913689e+001
2.339269e+003,2.899454e+001
2.341197e+003,2.879581e+001
2.343126e+003,2.889271e+001
2.345054e+003,2.952356e+001
2.346983e+003,3.069644e+001
2.348911e+003,3.087466e+001
2.350840e+003,2.985462e+001
2.352768e+003,2.866017e+001
2.354697e+003,2.771078e+001
2.356625e+003,2.695300e+001
2.358554e+003,2.657085e+001
2.360482e+003,2.650181e+001
2.362411e+003,2.660863e+001
2.364339e+003,2.712006e+001
2.366268e+003,2.789959e+001
2.368196e+003,2.876097e+001
2.370125e+003,2.961617e+001
2.372053e+003,3.053108e+001
2.373982e+003,3.142092e+001
2.375910e+003,3.223750e+001
2.377839e+003,3.298396e+001
2.379767e+003,3.369062e+001
2.381696e+003,3.430835e+001
2.383624e+003,3.480315e+001
2.385553e+003,3.513662e+001
2.387481e+003,3.529698e+001
2.389410e+003,3.535870e+001
2.391338e+003,3.539299e+001
2.393267e+003,3.539139e+001
2.395195e+003,3.536500e+001
2.397124e+003,3.531148e+001
2.399052e+003,3.527516e+001
2.400981e+003,3.526758e+001
2.402909e+003,3.528717e+001
2.404838e+003,3.530519e+001
2.406766e+003,3.527656e+001
2.408695e+003,3.522419e+001
2.410623e+003,3.519054e+001
2.412552e+003,3.516118e+001
2.414480e+003,3.515205e+001
2.416409e+003,3.514752e+001
2.418337e+003,3.514915e+001
2.420266e+003,3.514281e+001
2.422194e+003,3.512644e+001
2.424123e+003,3.506843e+001
2.426051e+003,3.502596e+001
2.427980e+003,3.502650e+001
2.429908e+003,3.502697e+001
2.431837e+003,3.503138e+001
2.433765e+003,3.502418e+001
2.435694e+003,3.498640e+001
2.437622e+003,3.494987e+001
2.439551e+003,3.490502e+001
2.441479e+003,3.489227e+001
2.443408e+003,3.490602e+001
2.445336e+003,3.489924e+001
2.447265e+003,3.487283e+001
2.449193e+003,3.484873e+001
2.451122e+003,3.480012e+001
2.453050e+003,3.476921e+001
2.454979e+003,3.476964e+001
2.456907e+003,3.478534e+001
2.458836e+003,3.478531e+001
2.460764e+003,3.475890e+001
2.462693e+003,3.471959e+001
2.464621e+003,3.469009e+001
2.466550e+003,3.466072e+001
2.468478e+003,3.464761e+001
2.470406e+003,3.465846e+001
2.472335e+003,3.465502e+001
2.474264e+003,3.462043e+001
2.476192e+003,3.457061e+001
2.478121e+003,3.453000e+001
2.480049e+003,3.451870e+001
2.481978e+003,3.452754e+001
2.483906e+003,3.454848e+001
2.485834e+003,3.454753e+001
2.487763e+003,3.450304e+001
2.489692e+003,3.445002e+001
2.491620e+003,3.442123e+001
2.493549e+003,3.442158e+001
2.495477e+003,3.442632e+001
2.497406e+003,3.443232e+001
2.499334e+003,3.443038e+001
2.501262e+003,3.438653e+001
2.503191e+003,3.434741e+001
2.505120e+003,3.431911e+001
2.507048e+003,3.431150e+001
2.508977e+003,3.429050e+001
2.510905e+003,3.429892e+001
2.512833e+003,3.429988e+001
2.514762e+003,3.426954e+001
2.516690e+003,3.423680e+001
2.518619e+003,3.421262e+001
2.520548e+003,3.418592e+001
2.522476e+003,3.418008e+001
2.524405e+003,3.418216e+001
2.526333e+003,3.416481e+001
2.528261e+003,3.412354e+001
2.530190e+003,3.407324e+001
2.532119e+003,3.405830e+001
2.534047e+003,3.406178e+001
2.535976e+003,3.406827e+001
2.537904e+003,3.407812e+001
2.539833e+003,3.404896e+001
2.541761e+003,3.399982e+001
2.543689e+003,3.397594e+001
2.545618e+003,3.396182e+001
2.547547e+003,3.395647e+001
2.549475e+003,3.397480e+001
2.551404e+003,3.397864e+001
2.553332e+003,3.394365e+001
2.555260e+003,3.389805e+001
2.557189e+003,3.388187e+001
2.559117e+003,3.385887e+001
2.561046e+003,3.383576e+001
2.562975e+003,3.383955e+001
2.564903e+003,3.384600e+001
2.566832e+003,3.382712e+001
2.568760e+003,3.379141e+001
2.570688e+003,3.374962e+001
2.572617e+003,3.372883e+001
2.574545e+003,3.371999e+001
2.576474e+003,3.373338e+001
2.578403e+003,3.372052e+001
2.580331e+003,3.369059e+001
2.582260e+003,3.365181e+001
2.584188e+003,3.360797e+001
2.586116e+003,3.358717e+001
2.588045e+003,3.360196e+001
2.589973e+003,3.361972e+001
2.591902e+003,3.361603e+001
2.593831e+003,3.358363e+001
2.595759e+003,3.356462e+001
2.597688e+003,3.353352e+001
2.599616e+003,3.351392e+001
2.601544e+003,3.352877e+001
2.603473e+003,3.351391e+001
2.605401e+003,3.346889e+001
2.607330e+003,3.342212e+001
2.609259e+003,3.339555e+001
2.611187e+003,3.338549e+001
2.613115e+003,3.339477e+001
2.615044e+003,3.339856e+001
2.616972e+003,3.338574e+001
2.618901e+003,3.335797e+001
2.620830e+003,3.329096e+001
2.622758e+003,3.325243e+001
2.624687e+003,3.325459e+001
2.626615e+003,3.326171e+001
2.628543e+003,3.327164e+001
2.630472e+003,3.327363e+001
2.632400e+003,3.324029e+001
2.634329e+003,3.318781e+001
2.636258e+003,3.314254e+001
2.638186e+003,3.312841e+001
2.640115e+003,3.314989e+001
2.642043e+003,3.315784e+001
2.643971e+003,3.312637e+001
2.645900e+003,3.309628e+001
2.647828e+003,3.305457e+001
2.649757e+003,3.303044e+001
2.651686e+003,3.301155e+001
2.653614e+003,3.301548e+001
2.655542e+003,3.304754e+001
2.657471e+003,3.305067e+001
2.659399e+003,3.301376e+001
2.661328e+003,3.295975e+001
2.663256e+003,3.292920e+001
2.665185e+003,3.292955e+001
2.667114e+003,3.293876e+001
2.669042e+003,3.294398e+001
2.670970e+003,3.290961e+001
2.672899e+003,3.284966e+001
2.674827e+003,3.280635e+001
2.676756e+003,3.278471e+001
2.678684e+003,3.277845e+001
2.680613e+003,3.279200e+001
2.682542e+003,3.280140e+001
2.684470e+003,3.278483e+001
2.686398e+003,3.273891e+001
2.688327e+003,3.270578e+001
2.690255e+003,3.270735e+001
2.692184e+003,3.270091e+001
2.694112e+003,3.269379e+001
2.696041e+003,3.268462e+001
2.697969e+003,3.266158e+001
2.699898e+003,3.263376e+001
2.701826e+003,3.260426e+001
2.703755e+003,3.258241e+001
2.705683e+003,3.258135e+001
2.707612e+003,3.257804e+001
2.709540e+003,3.254184e+001
2.711469e+003,3.252887e+001
2.713397e+003,3.250011e+001
2.715326e+003,3.249452e+001
2.717254e+003,3.248248e+001
2.719183e+003,3.247814e+001
2.721111e+003,3.246372e+001
2.723040e+003,3.244065e+001
2.724969e+003,3.239327e+001
2.726897e+003,3.236398e+001
2.728825e+003,3.236542e+001
2.730754e+003,3.236961e+001
2.732682e+003,3.236740e+001
2.734611e+003,3.235468e+001
2.736539e+003,3.232121e+001
2.738468e+003,3.227089e+001
2.740396e+003,3.223546e+001
2.742325e+003,3.222393e+001
2.744253e+003,3.223771e+001
2.746182e+003,3.224333e+001
2.748110e+003,3.223642e+001
2.750039e+003,3.223153e+001
2.751967e+003,3.220849e+001
2.753896e+003,3.215723e+001
2.755824e+003,3.211509e+001
2.757753e+003,3.213546e+001
2.759681e+003,3.215984e+001
2.761610e+003,3.214447e+001
2.763538e+003,3.213443e+001
2.765467e+003,3.210378e+001
2.767395e+003,3.204750e+001
2.769324e+003,3.201584e+001
2.771252e+003,3.203094e+001
2.773181e+003,3.203053e+001
2.775109e+003,3.200057e+001
2.777038e+003,3.198134e+001
2.778966e+003,3.194813e+001
2.780895e+003,3.190685e+001
2.782823e+003,3.191920e+001
2.784752e+003,3.195112e+001
2.786680e+003,3.192698e+001
2.788609e+003,3.187926e+001
2.790537e+003,3.184610e+001
2.792466e+003,3.180121e+001
2.794394e+003,3.176679e+001
2.796323e+003,3.177318e+001
2.798251e+003,3.179312e+001
2.800180e+003,3.181047e+001
2.802108e+003,3.181667e+001
2.804037e+003,3.176023e+001
2.805965e+003,3.170008e+001
2.807894e+003,3.169176e+001
2.809822e+003,3.168382e+001
2.811751e+003,3.169125e+001
2.813679e+003,3.168343e+001
2.815608e+003,3.165700e+001
2.817536e+003,3.162249e+001
2.819465e+003,3.159763e+001
2.821393e+003,3.157823e+001
2.823322e+003,3.156645e+001
2.825250e+003,3.157542e+001
2.827179e+003,3.157333e+001
2.829107e+003,3.153356e+001
2.831036e+003,3.147763e+001
2.832964e+003,3.143400e+001
2.834893e+003,3.142497e+001
2.836821e+003,3.141311e+001
2.838750e+003,3.138479e+001
2.840678e+003,3.136793e+001
2.842607e+003,3.131821e+001
2.844535e+003,3.125501e+001
2.846464e+003,3.117726e+001
2.848392e+003,3.111355e+001
2.850321e+003,3.109663e+001
2.852249e+003,3.110490e+001
2.854178e+003,3.108642e+001
2.856106e+003,3.103726e+001
2.858035e+003,3.100653e+001
2.859963e+003,3.103431e+001
2.861892e+003,3.106023e+001
2.863820e+003,3.106022e+001
2.865749e+003,3.106154e+001
2.867677e+003,3.105268e+001
2.869606e+003,3.101172e+001
2.871534e+003,3.098439e+001
2.873463e+003,3.097308e+001
2.875391e+003,3.096970e+001
2.877320e+003,3.098184e+001
2.879248e+003,3.097528e+001
2.881177e+003,3.093575e+001
2.883105e+003,3.086939e+001
2.885034e+003,3.083335e+001
2.886962e+003,3.083589e+001
2.888891e+003,3.084446e+001
2.890819e+003,3.082566e+001
2.892748e+003,3.078135e+001
2.894676e+003,3.074132e+001
2.896605e+003,3.069569e+001
2.898533e+003,3.065888e+001
2.900462e+003,3.065095e+001
2.902390e+003,3.064951e+001
2.904319e+003,3.062132e+001
2.906247e+003,3.057208e+001
2.908176e+003,3.053800e+001
2.910104e+003,3.049086e+001
2.912033e+003,3.042425e+001
2.913961e+003,3.036976e+001
2.915890e+003,3.031232e+001
2.917818e+003,3.024814e+001
2.919747e+003,3.021748e+001
2.921675e+003,3.020362e+001
2.923604e+003,3.020026e+001
2.925532e+003,3.020439e+001
2.927461e+003,3.020251e+001
2.929389e+003,3.022208e+001
2.931318e+003,3.025566e+001
2.933246e+003,3.026858e+001
2.935175e+003,3.026288e+001
2.937103e+003,3.026361e+001
2.939032e+003,3.027978e+001
2.940960e+003,3.029655e+001
2.942889e+003,3.030855e+001
2.944817e+003,3.029503e+001
2.946746e+003,3.027651e+001
2.948674e+003,3.028109e+001
2.950603e+003,3.025369e+001
2.952531e+003,3.021806e+001
2.954460e+003,3.024552e+001
2.956388e+003,3.026796e+001
2.958317e+003,3.023535e+001
2.960245e+003,3.019995e+001
2.962174e+003,3.018127e+001
2.964102e+003,3.015983e+001
2.966031e+003,3.015459e+001
2.967959e+003,3.017763e+001
2.969888e+003,3.018971e+001
2.971816e+003,3.018198e+001
2.973745e+003,3.018160e+001
2.975673e+003,3.015852e+001
2.977602e+003,3.011504e+001
2.979530e+003,3.012714e+001
2.981459e+003,3.013950e+001
2.983387e+003,3.015833e+001
2.985316e+003,3.015944e+001
2.987244e+003,3.013515e+001
2.989173e+003,3.008463e+001
2.991101e+003,3.002080e+001
2.993030e+003,3.001932e+001
2.994958e+003,3.006511e+001
2.996887e+003,3.007877e+001
2.998815e+003,3.007694e+001
3.000744e+003,3.003233e+001
3.002672e+003,2.998709e+001
3.004601e+003,2.999916e+001
3.006529e+003,2.999592e+001
3.008458e+003,2.995959e+001
3.010386e+003,2.995257e+001
3.012315e+003,2.994930e+001
3.014243e+003,2.991258e+001
3.016172e+003,2.990141e+001
3.018100e+003,2.990737e+001
3.020029e+003,2.989266e+001
3.021957e+003,2.986419e+001
3.023886e+003,2.983349e+001
3.025814e+003,2.985276e+001
3.027743e+003,2.986627e+001
3.029671e+003,2.982337e+001
3.031600e+003,2.982083e+001
3.033528e+003,2.981391e+001
3.035457e+003,2.981040e+001
3.037385e+003,2.978863e+001
3.039314e+003,2.974493e+001
3.041242e+003,2.972091e+001
3.043171e+003,2.972075e+001
3.045099e+003,2.967206e+001
3.047028e+003,2.963991e+001
3.048956e+003,2.967865e+001
3.050885e+003,2.965992e+001
3.052813e+003,2.959786e+001
3.054742e+003,2.959064e+001
3.056670e+003,2.958495e+001
3.058599e+003,2.955601e+001
3.060527e+003,2.955007e+001
3.062456e+003,2.953809e+001
3.064384e+003,2.952722e+001
3.066313e+003,2.952242e+001
3.068241e+003,2.949955e+001
3.070170e+003,2.944802e+001
3.072098e+003,2.943076e+001
3.074027e+003,2.942122e+001
3.075955e+003,2.943035e+001
3.077884e+003,2.943233e+001
3.079812e+003,2.941170e+001
3.081741e+003,2.937341e+001
3.083669e+003,2.933285e+001
3.085598e+003,2.929584e+001
3.087526e+003,2.927568e+001
3.089455e+003,2.927501e+001
3.091383e+003,2.927291e+001
3.093312e+003,2.924707e+001
3.095240e+003,2.923619e+001
3.097169e+003,2.922828e+001
3.099097e+003,2.919234e+001
3.101026e+003,2.920156e+001
3.102954e+003,2.921004e+001
3.104883e+003,2.915981e+001
3.106811e+003,2.911257e+001
3.108740e+003,2.907951e+001
3.110668e+003,2.906802e+001
3.112597e+003,2.905470e+001
3.114525e+003,2.903976e+001
3.116454e+003,2.904160e+001
3.118382e+003,2.902531e+001
3.120311e+003,2.898798e+001
3.122239e+003,2.898642e+001
3.124167e+003,2.898310e+001
3.126096e+003,2.897305e+001
3.128025e+003,2.896041e+001
3.129953e+003,2.893261e+001
3.131882e+003,2.891236e+001
3.133810e+003,2.888438e+001
3.135739e+003,2.884840e+001
3.137667e+003,2.880855e+001
3.139595e+003,2.878384e+001
3.141524e+003,2.878293e+001
3.143453e+003,2.878206e+001
3.145381e+003,2.875806e+001
3.147310e+003,2.876020e+001
3.149238e+003,2.872575e+001
3.151167e+003,2.867277e+001
3.153095e+003,2.865855e+001
3.155023e+003,2.864565e+001
3.156952e+003,2.863401e+001
3.158881e+003,2.859177e+001
3.160809e+003,2.853904e+001
3.162738e+003,2.854792e+001
3.164666e+003,2.854639e+001
3.166594e+003,2.851089e+001
3.168523e+003,2.849356e+001
3.170452e+003,2.847959e+001
3.172380e+003,2.844555e+001
3.174309e+003,2.840746e+001
3.176237e+003,2.841920e+001
3.178166e+003,2.842509e+001
3.180094e+003,2.836441e+001
3.182022e+003,2.833242e+001
3.183951e+003,2.835304e+001
3.185880e+003,2.833884e+001
3.187808e+003,2.826087e+001
3.189737e+003,2.818786e+001
3.191665e+003,2.817619e+001
3.193594e+003,2.820609e+001
3.195522e+003,2.820362e+001
3.197450e+003,2.818043e+001
3.199379e+003,2.815143e+001
3.201308e+003,2.810189e+001
3.203236e+003,2.804581e+001
3.205165e+003,2.800803e+001
3.207093e+003,2.798179e+001
3.209021e+003,2.798834e+001
3.210950e+003,2.799975e+001
3.212878e+003,2.798772e+001
3.214807e+003,2.798804e+001
3.216736e+003,2.792358e+001
3.218664e+003,2.790502e+001
3.220593e+003,2.790440e+001
3.222521e+003,2.782571e+001
3.224449e+003,2.775074e+001
3.226378e+003,2.777703e+001
3.228306e+003,2.778653e+001
3.230235e+003,2.774446e+001
3.232164e+003,2.772286e+001
3.234092e+003,2.768507e+001
3.236021e+003,2.767648e+001
3.237949e+003,2.764902e+001
3.239877e+003,2.760464e+001
3.241806e+003,2.758396e+001
3.243734e+003,2.759091e+001
3.245663e+003,2.758364e+001
3.247592e+003,2.752499e+001
3.249520e+003,2.750423e+001
3.251448e+003,2.746807e+001
3.253377e+003,2.741982e+001
3.255305e+003,2.738960e+001
3.257234e+003,2.738571e+001
3.259162e+003,2.739051e+001
3.261091e+003,2.736758e+001
3.263020e+003,2.733994e+001
3.264948e+003,2.731323e+001
3.266876e+003,2.729782e+001
3.268805e+003,2.730284e+001
3.270733e+003,2.725274e+001
3.272662e+003,2.718915e+001
3.274591e+003,2.721910e+001
3.276519e+003,2.729153e+001
3.278448e+003,2.725040e+001
3.280376e+003,2.715509e+001
3.282304e+003,2.710953e+001
3.284233e+003,2.709817e+001
3.286161e+003,2.711213e+001
3.288090e+003,2.710117e+001
3.290019e+003,2.705061e+001
3.291947e+003,2.702413e+001
3.293875e+003,2.700605e+001
3.295804e+003,2.699077e+001
3.297732e+003,2.699786e+001
3.299661e+003,2.695409e+001
3.301589e+003,2.689852e+001
3.303518e+003,2.687947e+001
3.305447e+003,2.684247e+001
3.307375e+003,2.679921e+001
3.309303e+003,2.679871e+001
3.311232e+003,2.680944e+001
3.313160e+003,2.678921e+001
3.315089e+003,2.672493e+001
3.317017e+003,2.668904e+001
3.318946e+003,2.666311e+001
3.320875e+003,2.663646e+001
3.322803e+003,2.661985e+001
3.324731e+003,2.659033e+001
3.326660e+003,2.656122e+001
3.328588e+003,2.655340e+001
3.330517e+003,2.654504e+001
3.332445e+003,2.652043e+001
3.334374e+003,2.646898e+001
3.336302e+003,2.644306e+001
3.338231e+003,2.642551e+001
3.340159e+003,2.639181e+001
3.342088e+003,2.636289e+001
3.344016e+003,2.636156e+001
3.345945e+003,2.633654e+001
3.347873e+003,2.626524e+001
3.349802e+003,2.623185e+001
3.351730e+003,2.623437e+001
3.353659e+003,2.621350e+001
3.355587e+003,2.617576e+001
3.357516e+003,2.612379e+001
3.359444e+003,2.607127e+001
3.361373e+003,2.606345e+001
3.363302e+003,2.601358e+001
3.365230e+003,2.596771e+001
3.367158e+003,2.595301e+001
3.369087e+003,2.591401e+001
3.371015e+003,2.589019e+001
3.372944e+003,2.586700e+001
3.374872e+003,2.582569e+001
3.376801e+003,2.579898e+001
3.378729e+003,2.577152e+001
3.380658e+003,2.575406e+001
3.382586e+003,2.573105e+001
3.384515e+003,2.571756e+001
3.386443e+003,2.568147e+001
3.388372e+003,2.562974e+001
3.390300e+003,2.560346e+001
3.392229e+003,2.561691e+001
3.394157e+003,2.557409e+001
3.396086e+003,2.550606e+001
3.398014e+003,2.547544e+001
3.399943e+003,2.544615e+001
3.401871e+003,2.547852e+001
3.403800e+003,2.550723e+001
3.405728e+003,2.548149e+001
3.407657e+003,2.542742e+001
3.409585e+003,2.543770e+001
3.411514e+003,2.542675e+001
3.413442e+003,2.536572e+001
3.415371e+003,2.534932e+001
3.417299e+003,2.533483e+001
3.419228e+003,2.533127e+001
3.421156e+003,2.539009e+001
3.423085e+003,2.536942e+001
3.425013e+003,2.528114e+001
3.426942e+003,2.522028e+001
3.428870e+003,2.524734e+001
3.430799e+003,2.527168e+001
3.432727e+003,2.525460e+001
3.434656e+003,2.522227e+001
3.436584e+003,2.520350e+001
3.438513e+003,2.521056e+001
3.440441e+003,2.519935e+001
3.442370e+003,2.521982e+001
3.444298e+003,2.521574e+001
3.446227e+003,2.529609e+001
3.448155e+003,2.536538e+001
3.450084e+003,2.522778e+001
3.452012e+003,2.515774e+001
3.453941e+003,2.513178e+001
3.455869e+003,2.517237e+001
3.457798e+003,2.515655e+001
3.459726e+003,2.514960e+001
3.461655e+003,2.522145e+001
3.463583e+003,2.526081e+001
3.465512e+003,2.520147e+001
3.467440e+003,2.515130e+001
3.469369e+003,2.508761e+001
3.471297e+003,2.507681e+001
3.473226e+003,2.513855e+001
3.475154e+003,2.517693e+001
3.477083e+003,2.512697e+001
3.479011e+003,2.508330e+001
3.480940e+003,2.512222e+001
3.482868e+003,2.522603e+001
3.484797e+003,2.515731e+001
3.486725e+003,2.513149e+001
3.488654e+003,2.517995e+001
3.490582e+003,2.515418e+001
3.492511e+003,2.508817e+001
3.494439e+003,2.507517e+001
3.496368e+003,2.513118e+001
3.498296e+003,2.515607e+001
3.500225e+003,2.511686e+001
3.502153e+003,2.519694e+001
3.504082e+003,2.526559e+001
3.506010e+003,2.509816e+001
3.507939e+003,2.508076e+001
3.509867e+003,2.523272e+001
3.511796e+003,2.518837e+001
3.513724e+003,2.512792e+001
3.515653e+003,2.511799e+001
3.517581e+003,2.512191e+001
3.519510e+003,2.508669e+001
3.521438e+003,2.506447e+001
3.523367e+003,2.520298e+001
3.525295e+003,2.521843e+001
3.527224e+003,2.522787e+001
3.529152e+003,2.525794e+001
3.531081e+003,2.519203e+001
3.533009e+003,2.508443e+001
3.534938e+003,2.506721e+001
3.536866e+003,2.520780e+001
3.538795e+003,2.520757e+001
3.540723e+003,2.514627e+001
3.542652e+003,2.514250e+001
3.544580e+003,2.528017e+001
3.546509e+003,2.538133e+001
3.548437e+003,2.527934e+001
3.550366e+003,2.518127e+001
3.552294e+003,2.538754e+001
3.554223e+003,2.538603e+001
3.556151e+003,2.524066e+001
3.558080e+003,2.515578e+001
3.560008e+003,2.519379e+001
3.561937e+003,2.518085e+001
3.563865e+003,2.509053e+001
3.565794e+003,2.528901e+001
3.567722e+003,2.578202e+001
3.569651e+003,2.555792e+001
3.571579e+003,2.529788e+001
3.573508e+003,2.525830e+001
3.575436e+003,2.529478e+001
3.577365e+003,2.524827e+001
3.579293e+003,2.527995e+001
3.581222e+003,2.527331e+001
3.583150e+003,2.515098e+001
3.585079e+003,2.504463e+001
3.587007e+003,2.552086e+001
3.588936e+003,2.568844e+001
3.590864e+003,2.529161e+001
3.592793e+003,2.520329e+001
3.594721e+003,2.538072e+001
3.596650e+003,2.545786e+001
3.598578e+003,2.538497e+001
3.600507e+003,2.542688e+001
3.602435e+003,2.535693e+001
3.604364e+003,2.518669e+001
3.606292e+003,2.523085e+001
3.608221e+003,2.564087e+001
3.610149e+003,2.567165e+001
3.612078e+003,2.559265e+001
3.614006e+003,2.580758e+001
3.615935e+003,2.559456e+001
3.617863e+003,2.569390e+001
3.619792e+003,2.597413e+001
3.621720e+003,2.568313e+001
3.623649e+003,2.531766e+001
3.625577e+003,2.513139e+001
3.627506e+003,2.528275e+001
3.629434e+003,2.636091e+001
3.631363e+003,2.586132e+001
3.633291e+003,2.567891e+001
3.635220e+003,2.569468e+001
3.637148e+003,2.560104e+001
3.639077e+003,2.567192e+001
3.641005e+003,2.565349e+001
3.642934e+003,2.572955e+001
3.644862e+003,2.553198e+001
3.646791e+003,2.575809e+001
3.648719e+003,2.662571e+001
3.650648e+003,2.695521e+001
3.652576e+003,2.618397e+001
3.654505e+003,2.574827e+001
3.656433e+003,2.612149e+001
3.658362e+003,2.597122e+001
3.660290e+003,2.583082e+001
3.662219e+003,2.580548e+001
3.664147e+003,2.576690e+001
3.666076e+003,2.563440e+001
3.668004e+003,2.563515e+001
3.669933e+003,2.642622e+001
3.671861e+003,2.613716e+001
3.673790e+003,2.557777e+001
3.675718e+003,2.690784e+001
3.677647e+003,2.645825e+001
3.679575e+003,2.606209e+001
3.681504e+003,2.582691e+001
3.683432e+003,2.566739e+001
3.685361e+003,2.548443e+001
3.687289e+003,2.546746e+001
3.689218e+003,2.616701e+001
3.691146e+003,2.622514e+001
3.693075e+003,2.582267e+001
3.695003e+003,2.552069e+001
3.696932e+003,2.547654e+001
3.698860e+003,2.532384e+001
3.700789e+003,2.553744e+001
3.702717e+003,2.577462e+001
3.704646e+003,2.554432e+001
3.706574e+003,2.539151e+001
3.708503e+003,2.540436e+001
3.710431e+003,2.592739e+001
3.712360e+003,2.639405e+001
3.714288e+003,2.608137e+001
3.716217e+003,2.565126e+001
3.718145e+003,2.556826e+001
3.720074e+003,2.545588e+001
3.722002e+003,2.545203e+001
3.723931e+003,2.549555e+001
3.725859e+003,2.554420e+001
3.727788e+003,2.548802e+001
3.729716e+003,2.512220e+001
3.731645e+003,2.529988e+001
3.733573e+003,2.570090e+001
3.735502e+003,2.645409e+001
3.737430e+003,2.629765e+001
3.739359e+003,2.586624e+001
3.741287e+003,2.563619e+001
3.743216e+003,2.570974e+001
3.745144e+003,2.657210e+001
3.747073e+003,2.591693e+001
3.749001e+003,2.590916e+001
3.750930e+003,2.651974e+001
3.752858e+003,2.636150e+001
3.754787e+003,2.570870e+001
3.756715e+003,2.547519e+001
3.758644e+003,2.572910e+001
3.760572e+003,2.585492e+001
3.762500e+003,2.544662e+001
3.764429e+003,2.536337e+001
3.766358e+003,2.550196e+001
3.768286e+003,2.545063e+001
3.770215e+003,2.582298e+001
3.772143e+003,2.556211e+001
3.774072e+003,2.531144e+001
3.776000e+003,2.518469e+001
3.777928e+003,2.517399e+001
3.779857e+003,2.554930e+001
3.781786e+003,2.531848e+001
3.783714e+003,2.522140e+001
3.785643e+003,2.540342e+001
3.787571e+003,2.527146e+001
3.789500e+003,2.518240e+001
3.791428e+003,2.516687e+001
3.793356e+003,2.505660e+001
3.795285e+003,2.512002e+001
3.797214e+003,2.541300e+001
3.799142e+003,2.507142e+001
3.801071e+003,2.566983e+001
3.802999e+003,2.583264e+001
3.804927e+003,2.518375e+001
3.806856e+003,2.554669e+001
3.808785e+003,2.547820e+001
3.810713e+003,2.513385e+001
3.812642e+003,2.492445e+001
3.814570e+003,2.494889e+001
3.816499e+003,2.558059e+001
3.818427e+003,2.506288e+001
3.820355e+003,2.533842e+001
3.822284e+003,2.589646e+001
3.824213e+003,2.531389e+001
3.826141e+003,2.524858e+001
3.828070e+003,2.518677e+001
3.829998e+003,2.496060e+001
3.831927e+003,2.516665e+001
3.833855e+003,2.516576e+001
3.835783e+003,2.512720e+001
3.837712e+003,2.530573e+001
3.839641e+003,2.564924e+001
3.841569e+003,2.542773e+001
3.843498e+003,2.532851e+001
3.845426e+003,2.515342e+001
3.847354e+003,2.481627e+001
3.849283e+003,2.468562e+001
3.851211e+003,2.469571e+001
3.853140e+003,2.595156e+001
3.855069e+003,2.588988e+001
3.856997e+003,2.526454e+001
3.858926e+003,2.488876e+001
3.860854e+003,2.477128e+001
3.862782e+003,2.492244e+001
3.864711e+003,2.527649e+001
3.866639e+003,2.502258e+001
3.868568e+003,2.483962e+001
3.870497e+003,2.544813e+001
3.872425e+003,2.503734e+001
3.874354e+003,2.525844e+001
3.876282e+003,2.493519e+001
3.878210e+003,2.456898e+001
3.880139e+003,2.494429e+001
3.882067e+003,2.502046e+001
3.883996e+003,2.474313e+001
3.885925e+003,2.514715e+001
3.887853e+003,2.476003e+001
3.889781e+003,2.454959e+001
3.891710e+003,2.504324e+001
3.893638e+003,2.495817e+001
3.895567e+003,2.460648e+001
3.897495e+003,2.457613e+001
3.899424e+003,2.487128e+001
3.901353e+003,2.497968e+001
3.903281e+003,2.505127e+001
3.905209e+003,2.514782e+001
3.907138e+003,2.484957e+001
3.909066e+003,2.465408e+001
3.910995e+003,2.461139e+001
3.912924e+003,2.454180e+001
3.914852e+003,2.445891e+001
3.916781e+003,2.470114e+001
3.918709e+003,2.477658e+001
3.920637e+003,2.468559e+001
3.922566e+003,2.450396e+001
3.924494e+003,2.464425e+001
3.926423e+003,2.458048e+001
3.928352e+003,2.444511e+001
3.930280e+003,2.452719e+001
3.932208e+003,2.467760e+001
3.934137e+003,2.462819e+001
3.936065e+003,2.448899e+001
3.937994e+003,2.445224e+001
3.939922e+003,2.439166e+001
3.941851e+003,2.448447e+001
3.943780e+003,2.455183e+001
3.945708e+003,2.444176e+001
3.947636e+003,2.447328e+001
3.949565e+003,2.449850e+001
3.951493e+003,2.443888e+001
3.953422e+003,2.439773e+001
3.955350e+003,2.434647e+001
3.957279e+003,2.430879e+001
3.959208e+003,2.431871e+001
3.961136e+003,2.438154e+001
3.963064e+003,2.443919e+001
3.964993e+003,2.437080e+001
3.966921e+003,2.431551e+001
3.968850e+003,2.425351e+001
3.970778e+003,2.426196e+001
3.972707e+003,2.427943e+001
3.974635e+003,2.431068e+001
3.976564e+003,2.432671e+001
3.978492e+003,2.425759e+001
3.980421e+003,2.421516e+001
3.982349e+003,2.421836e+001
3.984278e+003,2.423031e+001
3.986206e+003,2.425042e+001
3.988135e+003,2.422026e+001
3.990063e+003,2.423889e+001
3.991992e+003,2.419964e+001
3.993920e+003,2.415779e+001
3.995849e+003,2.413376e+001
3.997777e+003,2.408804e+001
3.999706e+003,2.406359e+001
