3.991992e+002,9.762769e+001
4.011277e+002,1.000000e+002
4.030562e+002,9.048976e+001
4.049847e+002,8.496146e+001
4.069132e+002,7.899809e+001
4.088417e+002,7.274374e+001
4.107702e+002,7.327764e+001
4.126987e+002,6.675451e+001
4.146272e+002,6.320800e+001
4.165557e+002,6.611303e+001
4.184842e+002,6.161901e+001
4.204127e+002,5.549940e+001
4.223412e+002,5.100281e+001
4.242697e+002,4.590192e+001
4.261982e+002,4.573172e+001
4.281267e+002,4.229039e+001
4.300552e+002,3.910669e+001
4.319837e+002,4.036020e+001
4.339122e+002,3.681175e+001
4.358407e+002,3.449266e+001
4.377692e+002,3.518814e+001
4.396977e+002,3.287438e+001
4.416262e+002,3.212341e+001
4.435547e+002,2.880341e+001
4.454832e+002,2.833290e+001
4.474117e+002,3.242319e+001
4.493401e+002,3.068349e+001
4.512686e+002,2.870592e+001
4.531971e+002,2.984748e+001
4.551256e+002,2.827143e+001
4.570541e+002,2.847772e+001
4.589826e+002,2.641687e+001
4.609111e+002,2.360977e+001
4.628396e+002,2.580250e+001
4.647681e+002,2.577887e+001
4.666966e+002,2.408088e+001
4.686251e+002,2.601416e+001
4.705536e+002,2.685051e+001
4.724821e+002,2.685638e+001
4.744106e+002,2.731825e+001
4.763391e+002,2.866112e+001
4.782676e+002,3.167629e+001
4.801961e+002,3.254836e+001
4.821246e+002,3.255618e+001
4.840531e+002,3.647987e+001
4.859816e+002,3.805737e+001
4.879101e+002,3.795188e+001
4.898386e+002,3.932051e+001
4.917671e+002,4.091428e+001
4.936956e+002,4.366002e+001
4.956241e+002,4.563035e+001
4.975526e+002,4.691956e+001
4.994811e+002,4.983795e+001
5.014096e+002,5.117445e+001
5.033381e+002,5.211280e+001
5.052666e+002,5.499247e+001
5.071951e+002,5.845461e+001
5.091236e+002,6.128436e+001
5.110521e+002,6.374952e+001
5.129806e+002,6.608347e+001
5.149091e+002,7.038098e+001
5.168376e+002,7.315159e+001
5.187661e+002,7.349547e+001
5.206946e+002,7.528329e+001
5.226231e+002,7.691317e+001
5.245516e+002,7.806030e+001
5.264801e+002,7.937529e+001
5.284086e+002,8.012657e+001
5.303371e+002,8.145449e+001
5.322656e+002,8.231683e+001
5.341941e+002,8.159910e+001
5.361226e+002,8.169157e+001
5.380511e+002,8.185276e+001
5.399796e+002,8.028722e+001
5.419081e+002,7.967429e+001
5.438365e+002,7.928920e+001
5.457651e+002,7.858229e+001
5.476936e+002,7.681464e+001
5.496221e+002,7.304318e+001
5.515506e+002,7.052449e+001
5.534791e+002,6.870930e+001
5.554076e+002,6.526394e+001
5.573361e+002,6.280803e+001
5.592646e+002,6.151206e+001
5.611931e+002,6.094662e+001
5.631216e+002,6.164591e+001
5.650500e+002,6.164051e+001
5.669786e+002,6.219356e+001
5.689070e+002,6.320840e+001
5.708356e+002,6.309541e+001
5.727640e+002,6.363064e+001
5.746926e+002,6.416458e+001
5.766210e+002,6.348737e+001
5.785496e+002,6.314237e+001
5.804780e+002,6.341109e+001
5.824066e+002,6.436365e+001
5.843350e+002,6.575612e+001
5.862635e+002,6.572270e+001
5.881920e+002,6.637465e+001
5.901205e+002,6.828201e+001
5.920490e+002,6.902086e+001
5.939775e+002,6.957533e+001
5.959060e+002,6.934619e+001
5.978345e+002,6.875063e+001
5.997631e+002,6.886825e+001
6.016915e+002,6.837392e+001
6.036201e+002,6.850195e+001
6.055485e+002,6.961615e+001
6.074771e+002,6.970258e+001
6.094055e+002,7.021318e+001
6.113340e+002,7.101906e+001
6.132625e+002,7.102823e+001
6.151910e+002,7.134124e+001
6.171195e+002,7.129120e+001
6.190480e+002,7.160483e+001
6.209765e+002,7.252570e+001
6.229050e+002,7.244463e+001
6.248335e+002,7.259470e+001
6.267620e+002,7.274077e+001
6.286905e+002,7.225891e+001
6.306190e+002,7.206401e+001
6.325475e+002,7.126630e+001
6.344760e+002,7.027201e+001
6.364045e+002,6.988528e+001
6.383330e+002,6.858926e+001
6.402615e+002,6.743347e+001
6.421900e+002,6.612967e+001
6.441185e+002,6.371968e+001
6.460470e+002,6.140404e+001
6.479755e+002,5.958154e+001
6.499040e+002,5.814992e+001
6.518325e+002,5.727268e+001
6.537610e+002,5.579319e+001
6.556895e+002,5.463585e+001
6.576180e+002,5.389523e+001
6.595465e+002,5.208513e+001
6.614750e+002,4.988125e+001
6.634035e+002,4.798732e+001
6.653320e+002,4.595628e+001
6.672605e+002,4.406329e+001
6.691890e+002,4.132032e+001
6.711175e+002,3.991907e+001
6.730460e+002,3.856059e+001
6.749745e+002,3.650572e+001
6.769030e+002,3.507254e+001
6.788315e+002,3.484062e+001
6.807599e+002,3.459054e+001
6.826885e+002,3.452695e+001
6.846169e+002,3.428088e+001
6.865455e+002,3.406768e+001
6.884739e+002,3.400076e+001
6.904025e+002,3.359141e+001
6.923309e+002,3.308935e+001
6.942595e+002,3.318991e+001
6.961880e+002,3.338291e+001
6.981165e+002,3.406511e+001
7.000450e+002,3.504717e+001
7.019734e+002,3.598902e+001
7.039020e+002,3.679868e+001
7.058304e+002,3.718530e+001
7.077590e+002,3.721397e+001
7.096874e+002,3.751989e+001
7.116160e+002,3.743237e+001
7.135444e+002,3.705484e+001
7.154730e+002,3.747727e+001
7.174014e+002,3.821440e+001
7.193300e+002,3.899836e+001
7.212584e+002,3.982266e+001
7.231870e+002,4.039185e+001
7.251154e+002,4.126707e+001
7.270439e+002,4.197622e+001
7.289724e+002,4.236660e+001
7.309009e+002,4.308560e+001
7.328294e+002,4.382395e+001
7.347579e+002,4.433526e+001
7.366864e+002,4.520540e+001
7.386149e+002,4.600806e+001
7.405434e+002,4.672517e+001
7.424719e+002,4.727183e+001
7.444004e+002,4.751953e+001
7.463289e+002,4.860336e+001
7.482574e+002,4.961493e+001
7.501859e+002,5.006702e+001
7.521144e+002,5.077472e+001
7.540429e+002,5.154959e+001
7.559714e+002,5.262822e+001
7.578999e+002,5.357279e+001
7.598284e+002,5.388185e+001
7.617569e+002,5.494233e+001
7.636854e+002,5.622573e+001
7.656139e+002,5.688165e+001
7.675424e+002,5.789690e+001
7.694709e+002,5.903171e+001
7.713994e+002,5.998937e+001
7.733279e+002,6.125932e+001
7.752564e+002,6.225570e+001
7.771849e+002,6.356058e+001
7.791134e+002,6.491545e+001
7.810419e+002,6.588158e+001
7.829704e+002,6.733533e+001
7.848989e+002,6.927351e+001
7.868274e+002,7.079881e+001
7.887559e+002,7.194212e+001
7.906844e+002,7.293034e+001
7.926129e+002,7.445085e+001
7.945414e+002,7.603310e+001
7.964699e+002,7.680222e+001
7.983984e+002,7.808035e+001
8.003269e+002,7.959343e+001
8.022554e+002,8.028823e+001
8.041839e+002,8.107108e+001
8.061124e+002,8.171431e+001
8.080409e+002,8.252416e+001
8.099694e+002,8.332769e+001
8.118979e+002,8.347993e+001
8.138264e+002,8.383709e+001
8.157549e+002,8.442791e+001
8.176833e+002,8.421545e+001
8.196119e+002,8.388907e+001
8.215403e+002,8.356491e+001
8.234689e+002,8.329673e+001
8.253973e+002,8.300246e+001
8.273259e+002,8.210997e+001
8.292543e+002,8.143064e+001
8.311829e+002,8.099140e+001
8.331113e+002,8.001266e+001
8.350399e+002,7.918517e+001
8.369683e+002,7.845667e+001
8.388969e+002,7.736066e+001
8.408253e+002,7.609544e+001
8.427538e+002,7.481741e+001
8.446824e+002,7.376965e+001
8.466108e+002,7.280960e+001
8.485394e+002,7.119427e+001
8.504678e+002,6.997472e+001
8.523964e+002,6.893893e+001
8.543248e+002,6.757539e+001
8.562534e+002,6.619460e+001
8.581818e+002,6.465836e+001
8.601104e+002,6.340885e+001
8.620388e+002,6.236363e+001
8.639673e+002,6.056046e+001
8.658958e+002,5.867875e+001
8.678243e+002,5.716460e+001
8.697528e+002,5.550905e+001
8.716813e+002,5.386311e+001
8.736098e+002,5.219511e+001
8.755383e+002,5.038967e+001
8.774668e+002,4.867319e+001
8.793953e+002,4.655655e+001
8.813238e+002,4.466772e+001
8.832523e+002,4.321867e+001
8.851808e+002,4.128260e+001
8.871093e+002,3.913725e+001
8.890378e+002,3.729611e+001
8.909663e+002,3.570930e+001
8.928948e+002,3.417648e+001
8.948233e+002,3.252680e+001
8.967518e+002,3.084745e+001
8.986803e+002,2.954177e+001
9.006088e+002,2.818180e+001
9.025373e+002,2.679431e+001
9.044658e+002,2.569377e+001
9.063943e+002,2.452847e+001
9.083228e+002,2.345390e+001
9.102513e+002,2.257070e+001
9.121798e+002,2.171750e+001
9.141083e+002,2.112036e+001
9.160368e+002,2.011612e+001
9.179653e+002,1.890070e+001
9.198938e+002,1.847617e+001
9.218223e+002,1.803128e+001
9.237508e+002,1.730331e+001
9.256793e+002,1.668081e+001
9.276078e+002,1.608476e+001
9.295363e+002,1.575949e+001
9.314648e+002,1.529234e+001
9.333932e+002,1.460447e+001
9.353218e+002,1.405350e+001
9.372502e+002,1.353337e+001
9.391788e+002,1.303277e+001
9.411072e+002,1.289878e+001
9.430358e+002,1.276821e+001
9.449643e+002,1.264547e+001
9.468928e+002,1.253303e+001
9.488213e+002,1.215619e+001
9.507498e+002,1.212946e+001
9.526783e+002,1.210007e+001
9.546068e+002,1.162369e+001
9.565353e+002,1.151266e+001
9.584637e+002,1.148846e+001
9.603923e+002,1.146571e+001
9.623207e+002,1.145829e+001
9.642493e+002,1.126831e+001
9.661777e+002,1.116533e+001
9.681063e+002,1.115594e+001
9.700347e+002,1.091322e+001
9.719633e+002,1.094275e+001
9.738917e+002,1.087014e+001
9.758203e+002,1.067659e+001
9.777487e+002,1.071055e+001
9.796772e+002,1.063246e+001
9.816057e+002,1.058140e+001
9.835342e+002,1.046594e+001
9.854627e+002,1.021459e+001
9.873912e+002,1.047593e+001
9.893197e+002,1.058254e+001
9.912482e+002,1.033732e+001
9.931768e+002,1.031681e+001
9.951052e+002,1.027642e+001
9.970338e+002,1.024007e+001
9.989622e+002,1.029321e+001
1.000891e+003,1.007771e+001
1.002819e+003,1.012539e+001
1.004748e+003,1.025443e+001
1.006676e+003,1.016940e+001
1.008605e+003,1.025972e+001
1.010533e+003,1.026984e+001
1.012462e+003,1.012150e+001
1.014390e+003,1.009141e+001
1.016319e+003,1.000000e+001
1.018247e+003,1.023984e+001
1.020176e+003,1.038407e+001
1.022104e+003,1.021696e+001
1.024033e+003,1.031305e+001
1.025961e+003,1.056893e+001
1.027890e+003,1.056397e+001
1.029818e+003,1.066096e+001
1.031747e+003,1.055806e+001
1.033675e+003,1.054947e+001
1.035604e+003,1.066215e+001
1.037532e+003,1.068984e+001
1.039461e+003,1.089452e+001
1.041389e+003,1.109386e+001
1.043318e+003,1.097345e+001
1.045246e+003,1.109809e+001
1.047175e+003,1.135362e+001
1.049103e+003,1.146389e+001
1.051032e+003,1.129093e+001
1.052960e+003,1.110025e+001
1.054889e+003,1.139875e+001
1.056817e+003,1.176069e+001
1.058746e+003,1.161379e+001
1.060674e+003,1.165428e+001
1.062603e+003,1.174303e+001
1.064531e+003,1.177590e+001
1.066460e+003,1.189523e+001
1.068388e+003,1.205704e+001
1.070317e+003,1.224002e+001
1.072245e+003,1.231645e+001
1.074174e+003,1.210627e+001
1.076102e+003,1.212892e+001
1.078031e+003,1.240510e+001
1.079959e+003,1.241735e+001
1.081888e+003,1.234665e+001
1.083816e+003,1.251821e+001
1.085745e+003,1.266771e+001
1.087673e+003,1.288304e+001
1.089602e+003,1.284191e+001
1.091530e+003,1.279438e+001
1.093459e+003,1.299179e+001
1.095387e+003,1.301481e+001
1.097316e+003,1.302033e+001
1.099244e+003,1.320157e+001
1.101173e+003,1.333209e+001
1.103101e+003,1.347015e+001
1.105030e+003,1.352222e+001
1.106958e+003,1.362431e+001
1.108887e+003,1.388900e+001
1.110815e+003,1.384979e+001
1.112744e+003,1.370942e+001
1.114672e+003,1.398684e+001
1.116601e+003,1.420821e+001
1.118529e+003,1.428747e+001
1.120458e+003,1.436867e+001
1.122386e+003,1.446894e+001
1.124315e+003,1.460470e+001
1.126243e+003,1.458726e+001
1.128172e+003,1.461022e+001
1.130100e+003,1.495614e+001
1.132029e+003,1.506402e+001
1.133957e+003,1.509783e+001
1.135886e+003,1.524625e+001
1.137814e+003,1.533274e+001
1.139743e+003,1.553348e+001
1.141671e+003,1.558402e+001
1.143600e+003,1.570188e+001
1.145528e+003,1.611494e+001
1.147457e+003,1.624648e+001
1.149385e+003,1.631814e+001
1.151314e+003,1.660442e+001
1.153242e+003,1.688164e+001
1.155171e+003,1.715185e+001
1.157099e+003,1.723400e+001
1.159028e+003,1.724612e+001
1.160956e+003,1.772683e+001
1.162885e+003,1.805656e+001
1.164813e+003,1.818290e+001
1.166742e+003,1.854096e+001
1.168670e+003,1.890623e+001
1.170599e+003,1.914487e+001
1.172527e+003,1.930910e+001
1.174456e+003,1.953231e+001
1.176384e+003,1.993097e+001
1.178313e+003,2.024282e+001
1.180241e+003,2.060637e+001
1.182170e+003,2.092828e+001
1.184098e+003,2.114017e+001
1.186027e+003,2.133666e+001
1.187955e+003,2.160595e+001
1.189884e+003,2.182689e+001
1.191812e+003,2.222733e+001
1.193741e+003,2.244658e+001
1.195669e+003,2.251947e+001
1.197598e+003,2.290829e+001
1.199526e+003,2.329336e+001
1.201455e+003,2.346028e+001
1.203383e+003,2.367391e+001
1.205312e+003,2.379006e+001
1.207240e+003,2.398227e+001
1.209169e+003,2.419831e+001
1.211097e+003,2.433918e+001
1.213026e+003,2.471366e+001
1.214954e+003,2.493980e+001
1.216883e+003,2.495592e+001
1.218811e+003,2.512578e+001
1.220740e+003,2.528200e+001
1.222668e+003,2.545924e+001
1.224597e+003,2.555495e+001
1.226525e+003,2.565008e+001
1.228453e+003,2.597759e+001
1.230382e+003,2.625948e+001
1.232311e+003,2.626381e+001
1.234239e+003,2.638093e+001
1.236167e+003,2.657560e+001
1.238096e+003,2.663932e+001
1.240025e+003,2.670773e+001
1.241953e+003,2.681214e+001
1.243882e+003,2.700797e+001
1.245810e+003,2.719297e+001
1.247739e+003,2.726226e+001
1.249667e+003,2.741720e+001
1.251596e+003,2.760363e+001
1.253524e+003,2.764023e+001
1.255453e+003,2.766288e+001
1.257381e+003,2.771961e+001
1.259310e+003,2.790261e+001
1.261238e+003,2.808609e+001
1.263167e+003,2.809144e+001
1.265095e+003,2.812927e+001
1.267024e+003,2.822893e+001
1.268952e+003,2.827266e+001
1.270880e+003,2.836854e+001
1.272809e+003,2.846775e+001
1.274738e+003,2.853150e+001
1.276666e+003,2.868783e+001
1.278594e+003,2.875203e+001
1.280523e+003,2.887221e+001
1.282452e+003,2.896861e+001
1.284380e+003,2.886734e+001
1.286308e+003,2.890378e+001
1.288237e+003,2.909567e+001
1.290166e+003,2.918652e+001
1.292094e+003,2.925172e+001
1.294022e+003,2.925683e+001
1.295951e+003,2.939437e+001
1.297880e+003,2.956027e+001
1.299808e+003,2.952014e+001
1.301736e+003,2.948815e+001
1.303665e+003,2.955705e+001
1.305594e+003,2.960111e+001
1.307522e+003,2.969123e+001
1.309450e+003,2.976214e+001
1.311379e+003,2.979979e+001
1.313307e+003,2.991322e+001
1.315236e+003,2.987958e+001
1.317164e+003,2.990102e+001
1.319093e+003,3.004602e+001
1.321021e+003,2.996714e+001
1.322950e+003,2.995107e+001
1.324878e+003,3.009787e+001
1.326807e+003,3.019207e+001
1.328735e+003,3.021691e+001
1.330664e+003,3.016463e+001
1.332592e+003,3.015168e+001
1.334521e+003,3.027306e+001
1.336449e+003,3.037444e+001
1.338378e+003,3.039763e+001
1.340307e+003,3.043675e+001
1.342235e+003,3.038859e+001
1.344163e+003,3.043755e+001
1.346092e+003,3.048548e+001
1.348021e+003,3.045668e+001
1.349949e+003,3.053063e+001
1.351877e+003,3.049303e+001
1.353806e+003,3.052272e+001
1.355734e+003,3.069854e+001
1.357663e+003,3.069425e+001
1.359591e+003,3.061415e+001
1.361520e+003,3.063980e+001
1.363448e+003,3.065538e+001
1.365377e+003,3.069370e+001
1.367305e+003,3.065641e+001
1.369234e+003,3.066380e+001
1.371162e+003,3.081408e+001
1.373091e+003,3.084047e+001
1.375019e+003,3.094115e+001
1.376948e+003,3.096312e+001
1.378876e+003,3.090935e+001
1.380805e+003,3.089865e+001
1.382733e+003,3.083422e+001
1.384662e+003,3.082258e+001
1.386590e+003,3.102951e+001
1.388519e+003,3.108259e+001
1.390447e+003,3.102256e+001
1.392376e+003,3.105541e+001
1.394304e+003,3.115750e+001
1.396233e+003,3.126542e+001
1.398161e+003,3.109758e+001
1.400090e+003,3.102072e+001
1.402018e+003,3.111582e+001
1.403947e+003,3.109445e+001
1.405875e+003,3.106834e+001
1.407804e+003,3.115125e+001
1.409732e+003,3.116520e+001
1.411661e+003,3.114256e+001
1.413589e+003,3.118347e+001
1.415518e+003,3.117389e+001
1.417446e+003,3.119539e+001
1.419375e+003,3.128996e+001
1.421303e+003,3.116776e+001
1.423232e+003,3.125069e+001
1.425160e+003,3.135892e+001
1.427089e+003,3.121494e+001
1.429017e+003,3.123369e+001
1.430946e+003,3.133657e+001
1.432874e+003,3.136704e+001
1.434803e+003,3.123612e+001
1.436731e+003,3.137850e+001
1.438660e+003,3.162030e+001
1.440588e+003,3.149858e+001
1.442517e+003,3.138039e+001
1.444445e+003,3.141653e+001
1.446374e+003,3.143124e+001
1.448302e+003,3.142288e+001
1.450231e+003,3.137442e+001
1.452159e+003,3.134171e+001
1.454088e+003,3.143579e+001
1.456016e+003,3.156090e+001
1.457945e+003,3.160364e+001
1.459873e+003,3.160196e+001
1.461802e+003,3.153869e+001
1.463730e+003,3.143214e+001
1.465659e+003,3.146453e+001
1.467587e+003,3.145021e+001
1.469516e+003,3.146453e+001
1.471444e+003,3.154021e+001
1.473373e+003,3.158610e+001
1.475301e+003,3.163239e+001
1.477230e+003,3.165843e+001
1.479158e+003,3.147201e+001
1.481087e+003,3.144533e+001
1.483015e+003,3.151126e+001
1.484944e+003,3.155580e+001
1.486872e+003,3.162703e+001
1.488801e+003,3.150796e+001
1.490729e+003,3.169947e+001
1.492658e+003,3.177736e+001
1.494586e+003,3.157821e+001
1.496515e+003,3.155238e+001
1.498443e+003,3.163977e+001
1.500372e+003,3.162200e+001
1.502300e+003,3.156743e+001
1.504229e+003,3.135360e+001
1.506157e+003,3.148594e+001
1.508086e+003,3.207800e+001
1.510014e+003,3.159486e+001
1.511943e+003,3.145595e+001
1.513871e+003,3.147715e+001
1.515800e+003,3.149381e+001
1.517728e+003,3.167198e+001
1.519657e+003,3.145659e+001
1.521585e+003,3.162848e+001
1.523514e+003,3.178423e+001
1.525442e+003,3.146752e+001
1.527371e+003,3.144155e+001
1.529299e+003,3.160707e+001
1.531228e+003,3.150245e+001
1.533156e+003,3.154641e+001
1.535085e+003,3.150226e+001
1.537013e+003,3.125864e+001
1.538942e+003,3.135808e+001
1.540870e+003,3.177531e+001
1.542799e+003,3.158487e+001
1.544727e+003,3.159241e+001
1.546656e+003,3.139560e+001
1.548584e+003,3.126891e+001
1.550513e+003,3.145329e+001
1.552441e+003,3.142430e+001
1.554370e+003,3.151737e+001
1.556298e+003,3.132841e+001
1.558227e+003,3.125239e+001
1.560155e+003,3.217245e+001
1.562084e+003,3.162771e+001
1.564012e+003,3.137937e+001
1.565941e+003,3.140392e+001
1.567869e+003,3.128293e+001
1.569798e+003,3.145330e+001
1.571726e+003,3.139496e+001
1.573655e+003,3.105016e+001
1.575583e+003,3.110883e+001
1.577512e+003,3.135250e+001
1.579440e+003,3.126800e+001
1.581369e+003,3.132699e+001
1.583297e+003,3.125193e+001
1.585226e+003,3.116914e+001
1.587154e+003,3.106274e+001
1.589083e+003,3.100104e+001
1.591011e+003,3.108876e+001
1.592940e+003,3.102168e+001
1.594868e+003,3.094860e+001
1.596797e+003,3.100990e+001
1.598725e+003,3.095744e+001
1.600654e+003,3.091256e+001
1.602582e+003,3.091092e+001
1.604511e+003,3.081066e+001
1.606439e+003,3.076222e+001
1.608368e+003,3.068620e+001
1.610296e+003,3.066286e+001
1.612225e+003,3.070199e+001
1.614153e+003,3.049303e+001
1.616082e+003,3.040360e+001
1.618010e+003,3.059902e+001
1.619939e+003,3.042505e+001
1.621867e+003,3.027590e+001
1.623796e+003,3.028201e+001
1.625724e+003,3.019818e+001
1.627653e+003,3.033528e+001
1.629581e+003,3.038971e+001
1.631510e+003,3.017781e+001
1.633438e+003,3.009570e+001
1.635367e+003,3.023911e+001
1.637295e+003,3.036745e+001
1.639224e+003,3.020325e+001
1.641152e+003,3.009661e+001
1.643081e+003,2.998448e+001
1.645009e+003,2.989725e+001
1.646938e+003,3.011123e+001
1.648866e+003,3.024744e+001
1.650795e+003,2.995439e+001
1.652723e+003,2.984475e+001
1.654652e+003,3.037842e+001
1.656580e+003,3.019126e+001
1.658509e+003,3.012405e+001
1.660437e+003,3.009052e+001
1.662366e+003,3.010950e+001
1.664294e+003,3.032066e+001
1.666223e+003,3.016590e+001
1.668151e+003,3.000396e+001
1.670080e+003,3.018269e+001
1.672008e+003,3.029867e+001
1.673937e+003,3.026424e+001
1.675865e+003,3.047540e+001
1.677794e+003,3.034022e+001
1.679722e+003,3.033676e+001
1.681651e+003,3.029176e+001
1.683579e+003,3.010737e+001
1.685508e+003,3.051346e+001
1.687436e+003,3.041188e+001
1.689365e+003,3.044369e+001
1.691293e+003,3.046856e+001
1.693222e+003,3.033064e+001
1.695150e+003,3.043774e+001
1.697079e+003,3.074375e+001
1.699007e+003,3.036680e+001
1.700936e+003,3.066098e+001
1.702864e+003,3.061158e+001
1.704793e+003,3.044826e+001
1.706721e+003,3.065308e+001
1.708650e+003,3.059403e+001
1.710578e+003,3.057201e+001
1.712507e+003,3.057404e+001
1.714435e+003,3.047627e+001
1.716364e+003,3.060714e+001
1.718292e+003,3.096575e+001
1.720221e+003,3.071883e+001
1.722149e+003,3.062725e+001
1.724078e+003,3.075201e+001
1.726006e+003,3.076593e+001
1.727935e+003,3.072781e+001
1.729863e+003,3.061174e+001
1.731792e+003,3.055302e+001
1.733720e+003,3.085763e+001
1.735649e+003,3.097068e+001
1.737577e+003,3.080258e+001
1.739506e+003,3.093318e+001
1.741434e+003,3.087433e+001
1.743363e+003,3.082938e+001
1.745291e+003,3.085065e+001
1.747220e+003,3.077593e+001
1.749148e+003,3.082662e+001
1.751077e+003,3.094046e+001
1.753005e+003,3.105294e+001
1.754934e+003,3.096090e+001
1.756862e+003,3.091164e+001
1.758791e+003,3.086924e+001
1.760719e+003,3.083930e+001
1.762648e+003,3.102252e+001
1.764576e+003,3.095421e+001
1.766505e+003,3.067760e+001
1.768433e+003,3.067862e+001
1.770362e+003,3.077833e+001
1.772290e+003,3.093328e+001
1.774219e+003,3.095932e+001
1.776147e+003,3.091995e+001
1.778076e+003,3.086092e+001
1.780004e+003,3.084935e+001
1.781933e+003,3.080581e+001
1.783861e+003,3.081077e+001
1.785790e+003,3.095392e+001
1.787718e+003,3.082056e+001
1.789647e+003,3.070172e+001
1.791575e+003,3.084705e+001
1.793504e+003,3.095710e+001
1.795432e+003,3.086014e+001
1.797361e+003,3.072559e+001
1.799289e+003,3.068070e+001
1.801218e+003,3.086345e+001
1.803146e+003,3.084404e+001
1.805075e+003,3.078123e+001
1.807003e+003,3.081087e+001
1.808932e+003,3.081185e+001
1.810860e+003,3.078811e+001
1.812789e+003,3.079001e+001
1.814717e+003,3.080385e+001
1.816646e+003,3.086027e+001
1.818574e+003,3.077296e+001
1.820503e+003,3.080506e+001
1.822431e+003,3.091177e+001
1.824360e+003,3.084090e+001
1.826288e+003,3.074486e+001
1.828217e+003,3.068450e+001
1.830145e+003,3.081232e+001
1.832074e+003,3.091236e+001
1.834002e+003,3.082816e+001
1.835931e+003,3.080651e+001
1.837859e+003,3.092961e+001
1.839788e+003,3.086923e+001
1.841716e+003,3.063838e+001
1.843645e+003,3.064054e+001
1.845573e+003,3.073670e+001
1.847502e+003,3.073608e+001
1.849430e+003,3.080507e+001
1.851359e+003,3.077246e+001
1.853287e+003,3.081903e+001
1.855216e+003,3.074111e+001
1.857144e+003,3.062480e+001
1.859073e+003,3.068645e+001
1.861001e+003,3.069595e+001
1.862930e+003,3.058256e+001
1.864858e+003,3.050745e+001
1.866786e+003,3.047565e+001
1.868715e+003,3.072838e+001
1.870644e+003,3.079381e+001
1.872572e+003,3.062222e+001
1.874500e+003,3.062585e+001
1.876429e+003,3.061409e+001
1.878358e+003,3.048000e+001
1.880286e+003,3.044521e+001
1.882215e+003,3.047033e+001
1.884143e+003,3.052101e+001
1.886072e+003,3.049978e+001
1.888000e+003,3.041049e+001
1.889929e+003,3.054997e+001
1.891857e+003,3.054488e+001
1.893786e+003,3.044653e+001
1.895714e+003,3.052598e+001
1.897643e+003,3.056675e+001
1.899571e+003,3.054659e+001
1.901500e+003,3.046746e+001
1.903428e+003,3.037393e+001
1.905357e+003,3.044499e+001
1.907285e+003,3.052678e+001
1.909214e+003,3.045684e+001
1.911142e+003,3.046891e+001
1.913071e+003,3.042709e+001
1.914999e+003,3.037685e+001
1.916927e+003,3.043511e+001
1.918856e+003,3.049341e+001
1.920785e+003,3.040652e+001
1.922713e+003,3.034298e+001
1.924641e+003,3.028874e+001
1.926570e+003,3.037679e+001
1.928499e+003,3.040527e+001
1.930427e+003,3.034002e+001
1.932355e+003,3.035221e+001
1.934284e+003,3.032009e+001
1.936213e+003,3.030208e+001
1.938141e+003,3.027965e+001
1.940069e+003,3.014825e+001
1.941998e+003,3.021320e+001
1.943927e+003,3.028355e+001
1.945855e+003,3.017150e+001
1.947783e+003,3.016102e+001
1.949712e+003,3.017489e+001
1.951641e+003,3.017699e+001
1.953569e+003,3.016155e+001
1.955497e+003,3.011463e+001
1.957426e+003,3.005886e+001
1.959354e+003,3.004085e+001
1.961283e+003,2.997280e+001
1.963211e+003,3.002794e+001
1.965140e+003,3.009814e+001
1.967068e+003,3.008891e+001
1.968997e+003,3.002701e+001
1.970925e+003,2.990593e+001
1.972854e+003,2.992542e+001
1.974782e+003,2.998833e+001
1.976711e+003,2.993505e+001
1.978639e+003,2.993883e+001
1.980568e+003,2.995368e+001
1.982496e+003,2.990454e+001
1.984425e+003,2.994411e+001
1.986354e+003,2.993432e+001
1.988282e+003,2.987542e+001
1.990210e+003,2.987535e+001
1.992139e+003,2.982610e+001
1.994068e+003,2.988904e+001
1.995996e+003,2.999894e+001
1.997924e+003,2.990937e+001
1.999853e+003,2.983580e+001
2.001781e+003,2.981796e+001
2.003710e+003,2.979037e+001
2.005638e+003,2.978207e+001
2.007567e+003,2.969812e+001
2.009495e+003,2.973792e+001
2.011424e+003,2.983368e+001
2.013352e+003,2.973790e+001
2.015281e+003,2.970596e+001
2.017209e+003,2.973492e+001
2.019138e+003,2.969274e+001
2.021066e+003,2.965971e+001
2.022995e+003,2.962833e+001
2.024923e+003,2.966832e+001
2.026852e+003,2.971802e+001
2.028780e+003,2.963643e+001
2.030709e+003,2.962315e+001
2.032637e+003,2.968244e+001
2.034566e+003,2.964576e+001
2.036494e+003,2.958390e+001
2.038423e+003,2.956828e+001
2.040351e+003,2.961116e+001
2.042280e+003,2.969151e+001
2.044208e+003,2.959362e+001
2.046137e+003,2.949185e+001
2.048065e+003,2.954502e+001
2.049994e+003,2.950667e+001
2.051922e+003,2.950061e+001
2.053851e+003,2.957527e+001
2.055779e+003,2.960750e+001
2.057708e+003,2.957938e+001
2.059636e+003,2.949229e+001
2.061565e+003,2.947005e+001
2.063493e+003,2.954100e+001
2.065422e+003,2.952224e+001
2.067350e+003,2.941112e+001
2.069279e+003,2.941456e+001
2.071207e+003,2.948276e+001
2.073136e+003,2.951535e+001
2.075064e+003,2.949428e+001
2.076993e+003,2.946018e+001
2.078921e+003,2.950516e+001
2.080850e+003,2.945005e+001
2.082778e+003,2.938545e+001
2.084707e+003,2.935690e+001
2.086635e+003,2.933673e+001
2.088564e+003,2.936293e+001
2.090492e+003,2.940455e+001
2.092421e+003,2.943811e+001
2.094349e+003,2.944712e+001
2.096278e+003,2.932577e+001
2.098206e+003,2.924546e+001
2.100135e+003,2.928693e+001
2.102063e+003,2.930155e+001
2.103992e+003,2.928060e+001
2.105920e+003,2.931922e+001
2.107849e+003,2.931830e+001
2.109777e+003,2.932501e+001
2.111706e+003,2.931867e+001
2.113634e+003,2.925978e+001
2.115563e+003,2.924762e+001
2.117491e+003,2.918733e+001
2.119420e+003,2.917023e+001
2.121348e+003,2.927434e+001
2.123277e+003,2.927122e+001
2.125205e+003,2.921920e+001
2.127134e+003,2.913980e+001
2.129062e+003,2.905468e+001
2.130991e+003,2.906340e+001
2.132919e+003,2.912169e+001
2.134848e+003,2.912648e+001
2.136776e+003,2.915322e+001
2.138705e+003,2.915849e+001
2.140633e+003,2.915324e+001
2.142562e+003,2.912696e+001
2.144490e+003,2.907316e+001
2.146419e+003,2.906122e+001
2.148347e+003,2.904188e+001
2.150276e+003,2.900489e+001
2.152204e+003,2.908132e+001
2.154133e+003,2.911474e+001
2.156061e+003,2.907077e+001
2.157990e+003,2.905310e+001
2.159918e+003,2.901460e+001
2.161847e+003,2.900326e+001
2.163775e+003,2.896722e+001
2.165704e+003,2.888733e+001
2.167632e+003,2.894613e+001
2.169561e+003,2.900010e+001
2.171489e+003,2.896325e+001
2.173418e+003,2.900268e+001
2.175346e+003,2.901021e+001
2.177275e+003,2.903239e+001
2.179203e+003,2.901775e+001
2.181132e+003,2.885015e+001
2.183060e+003,2.887656e+001
2.184989e+003,2.894597e+001
2.186917e+003,2.888674e+001
2.188846e+003,2.885974e+001
2.190774e+003,2.889404e+001
2.192703e+003,2.884961e+001
2.194631e+003,2.878294e+001
2.196560e+003,2.879889e+001
2.198488e+003,2.892591e+001
2.200417e+003,2.892535e+001
2.202345e+003,2.880830e+001
2.204274e+003,2.876869e+001
2.206202e+003,2.879500e+001
2.208131e+003,2.879475e+001
2.210059e+003,2.875273e+001
2.211988e+003,2.868903e+001
2.213916e+003,2.870571e+001
2.215845e+003,2.874065e+001
2.217773e+003,2.867710e+001
2.219702e+003,2.868400e+001
2.221630e+003,2.876977e+001
2.223559e+003,2.877181e+001
2.225487e+003,2.868538e+001
2.227416e+003,2.867549e+001
2.229344e+003,2.869677e+001
2.231273e+003,2.868051e+001
2.233201e+003,2.861870e+001
2.235130e+003,2.865760e+001
2.237058e+003,2.873973e+001
2.238987e+003,2.865696e+001
2.240915e+003,2.857169e+001
2.242844e+003,2.855231e+001
2.244772e+003,2.851140e+001
2.246701e+003,2.849298e+001
2.248629e+003,2.853189e+001
2.250558e+003,2.858600e+001
2.252486e+003,2.857892e+001
2.254415e+003,2.847932e+001
2.256343e+003,2.847851e+001
2.258272e+003,2.851775e+001
2.260200e+003,2.844788e+001
2.262129e+003,2.838317e+001
2.264057e+003,2.834983e+001
2.265986e+003,2.842249e+001
2.267914e+003,2.848670e+001
2.269843e+003,2.844417e+001
2.271771e+003,2.842697e+001
2.273700e+003,2.848749e+001
2.275628e+003,2.846856e+001
2.277557e+003,2.844776e+001
2.279485e+003,2.842885e+001
2.281414e+003,2.835310e+001
2.283342e+003,2.836433e+001
2.285271e+003,2.836432e+001
2.287199e+003,2.834109e+001
2.289128e+003,2.833088e+001
2.291056e+003,2.823019e+001
2.292985e+003,2.815309e+001
2.294913e+003,2.822559e+001
2.296842e+003,2.825455e+001
2.298770e+003,2.821199e+001
2.300699e+003,2.806528e+001
2.302627e+003,2.794645e+001
2.304556e+003,2.805139e+001
2.306484e+003,2.806454e+001
2.308413e+003,2.798476e+001
2.310341e+003,2.797664e+001
2.312270e+003,2.794380e+001
2.314198e+003,2.789982e+001
2.316127e+003,2.783545e+001
2.318055e+003,2.777702e+001
2.319984e+003,2.766189e+001
2.321912e+003,2.735376e+001
2.323841e+003,2.713250e+001
2.325769e+003,2.735232e+001
2.327698e+003,2.731910e+001
2.329626e+003,2.714886e+001
2.331555e+003,2.731063e+001
2.333483e+003,2.733478e+001
2.335412e+003,2.731747e+001
2.337340e+003,2.726711e+001
2.339269e+003,2.706130e+001
2.341197e+003,2.707140e+001
2.343126e+003,2.722608e+001
2.345054e+003,2.732876e+001
2.346983e+003,2.750607e+001
2.348911e+003,2.747705e+001
2.350840e+003,2.728426e+001
2.352768e+003,2.714740e+001
2.354697e+003,2.686316e+001
2.356625e+003,2.679751e+001
2.358554e+003,2.642214e+001
2.360482e+003,2.636731e+001
2.362411e+003,2.727023e+001
2.364339e+003,2.724672e+001
2.366268e+003,2.691380e+001
2.368196e+003,2.689231e+001
2.370125e+003,2.707461e+001
2.372053e+003,2.738065e+001
2.373982e+003,2.747303e+001
2.375910e+003,2.734477e+001
2.377839e+003,2.750020e+001
2.379767e+003,2.765969e+001
2.381696e+003,2.768529e+001
2.383624e+003,2.771216e+001
2.385553e+003,2.775452e+001
2.387481e+003,2.779365e+001
2.389410e+003,2.772856e+001
2.391338e+003,2.769227e+001
2.393267e+003,2.785260e+001
2.395195e+003,2.782543e+001
2.397124e+003,2.768255e+001
2.399052e+003,2.769699e+001
2.400981e+003,2.772332e+001
2.402909e+003,2.768843e+001
2.404838e+003,2.766012e+001
2.406766e+003,2.762775e+001
2.408695e+003,2.766701e+001
2.410623e+003,2.769556e+001
2.412552e+003,2.762404e+001
2.414480e+003,2.763482e+001
2.416409e+003,2.767036e+001
2.418337e+003,2.760205e+001
2.420266e+003,2.754857e+001
2.422194e+003,2.756709e+001
2.424123e+003,2.762011e+001
2.426051e+003,2.762038e+001
2.427980e+003,2.752044e+001
2.429908e+003,2.758074e+001
2.431837e+003,2.773169e+001
2.433765e+003,2.765824e+001
2.435694e+003,2.756182e+001
2.437622e+003,2.750470e+001
2.439551e+003,2.747370e+001
2.441479e+003,2.746021e+001
2.443408e+003,2.743179e+001
2.445336e+003,2.747626e+001
2.447265e+003,2.747664e+001
2.449193e+003,2.742595e+001
2.451122e+003,2.743363e+001
2.453050e+003,2.747803e+001
2.454979e+003,2.749301e+001
2.456907e+003,2.747662e+001
2.458836e+003,2.735306e+001
2.460764e+003,2.727876e+001
2.462693e+003,2.736461e+001
2.464621e+003,2.732089e+001
2.466550e+003,2.729825e+001
2.468478e+003,2.733858e+001
2.470406e+003,2.733024e+001
2.472335e+003,2.732484e+001
2.474264e+003,2.727834e+001
2.476192e+003,2.726393e+001
2.478121e+003,2.730022e+001
2.480049e+003,2.719276e+001
2.481978e+003,2.714149e+001
2.483906e+003,2.724529e+001
2.485834e+003,2.725501e+001
2.487763e+003,2.718223e+001
2.489692e+003,2.717963e+001
2.491620e+003,2.722272e+001
2.493549e+003,2.723953e+001
2.495477e+003,2.713015e+001
2.497406e+003,2.709784e+001
2.499334e+003,2.714692e+001
2.501262e+003,2.709010e+001
2.503191e+003,2.708097e+001
2.505120e+003,2.715047e+001
2.507048e+003,2.719557e+001
2.508977e+003,2.717847e+001
2.510905e+003,2.705906e+001
2.512833e+003,2.698409e+001
2.514762e+003,2.706129e+001
2.516690e+003,2.703749e+001
2.518619e+003,2.698933e+001
2.520548e+003,2.701514e+001
2.522476e+003,2.702821e+001
2.524405e+003,2.703290e+001
2.526333e+003,2.695853e+001
2.528261e+003,2.699124e+001
2.530190e+003,2.705424e+001
2.532119e+003,2.695378e+001
2.534047e+003,2.681232e+001
2.535976e+003,2.689350e+001
2.537904e+003,2.697873e+001
2.539833e+003,2.693774e+001
2.541761e+003,2.685788e+001
2.543689e+003,2.684932e+001
2.545618e+003,2.692619e+001
2.547547e+003,2.684943e+001
2.549475e+003,2.676207e+001
2.551404e+003,2.682701e+001
2.553332e+003,2.682429e+001
2.555260e+003,2.677312e+001
2.557189e+003,2.681178e+001
2.559117e+003,2.683294e+001
2.561046e+003,2.675191e+001
2.562975e+003,2.664567e+001
2.564903e+003,2.662953e+001
2.566832e+003,2.675601e+001
2.568760e+003,2.679447e+001
2.570688e+003,2.670053e+001
2.572617e+003,2.669312e+001
2.574545e+003,2.673962e+001
2.576474e+003,2.670996e+001
2.578403e+003,2.660451e+001
2.580331e+003,2.655419e+001
2.582260e+003,2.660190e+001
2.584188e+003,2.659586e+001
2.586116e+003,2.655782e+001
2.588045e+003,2.657724e+001
2.589973e+003,2.660763e+001
2.591902e+003,2.656655e+001
2.593831e+003,2.652671e+001
2.595759e+003,2.648753e+001
2.597688e+003,2.658575e+001
2.599616e+003,2.654833e+001
2.601544e+003,2.639963e+001
2.603473e+003,2.646000e+001
2.605401e+003,2.648370e+001
2.607330e+003,2.640311e+001
2.609259e+003,2.642379e+001
2.611187e+003,2.646849e+001
2.613115e+003,2.653609e+001
2.615044e+003,2.650324e+001
2.616972e+003,2.641292e+001
2.618901e+003,2.648229e+001
2.620830e+003,2.647370e+001
2.622758e+003,2.635789e+001
2.624687e+003,2.636414e+001
2.626615e+003,2.642211e+001
2.628543e+003,2.640121e+001
2.630472e+003,2.632113e+001
2.632400e+003,2.627649e+001
2.634329e+003,2.632349e+001
2.636258e+003,2.633767e+001
2.638186e+003,2.623295e+001
2.640115e+003,2.624132e+001
2.642043e+003,2.627636e+001
2.643971e+003,2.622677e+001
2.645900e+003,2.621983e+001
2.647828e+003,2.627413e+001
2.649757e+003,2.640458e+001
2.651686e+003,2.636409e+001
2.653614e+003,2.620892e+001
2.655542e+003,2.617774e+001
2.657471e+003,2.624956e+001
2.659399e+003,2.618383e+001
2.661328e+003,2.611033e+001
2.663256e+003,2.612560e+001
2.665185e+003,2.611703e+001
2.667114e+003,2.604558e+001
2.669042e+003,2.599827e+001
2.670970e+003,2.603470e+001
2.672899e+003,2.603677e+001
2.674827e+003,2.598264e+001
2.676756e+003,2.597571e+001
2.678684e+003,2.597190e+001
2.680613e+003,2.602949e+001
2.682542e+003,2.607357e+001
2.684470e+003,2.604341e+001
2.686398e+003,2.598013e+001
2.688327e+003,2.595586e+001
2.690255e+003,2.590103e+001
2.692184e+003,2.588704e+001
2.694112e+003,2.596012e+001
2.696041e+003,2.596867e+001
2.697969e+003,2.593643e+001
2.699898e+003,2.592666e+001
2.701826e+003,2.592170e+001
2.703755e+003,2.588896e+001
2.705683e+003,2.573835e+001
2.707612e+003,2.576639e+001
2.709540e+003,2.589164e+001
2.711469e+003,2.589804e+001
2.713397e+003,2.586627e+001
2.715326e+003,2.586208e+001
2.717254e+003,2.584128e+001
2.719183e+003,2.579324e+001
2.721111e+003,2.568398e+001
2.723040e+003,2.571053e+001
2.724969e+003,2.575089e+001
2.726897e+003,2.567506e+001
2.728825e+003,2.568896e+001
2.730754e+003,2.576318e+001
2.732682e+003,2.575861e+001
2.734611e+003,2.570514e+001
2.736539e+003,2.562621e+001
2.738468e+003,2.560666e+001
2.740396e+003,2.564127e+001
2.742325e+003,2.548043e+001
2.744253e+003,2.546257e+001
2.746182e+003,2.558659e+001
2.748110e+003,2.559608e+001
2.750039e+003,2.554138e+001
2.751967e+003,2.549153e+001
2.753896e+003,2.550975e+001
2.755824e+003,2.555420e+001
2.757753e+003,2.546556e+001
2.759681e+003,2.544072e+001
2.761610e+003,2.560326e+001
2.763538e+003,2.561578e+001
2.765467e+003,2.542506e+001
2.767395e+003,2.531612e+001
2.769324e+003,2.535680e+001
2.771252e+003,2.547474e+001
2.773181e+003,2.548418e+001
2.775109e+003,2.545946e+001
2.777038e+003,2.546818e+001
2.778966e+003,2.536525e+001
2.780895e+003,2.531523e+001
2.782823e+003,2.530524e+001
2.784752e+003,2.523770e+001
2.786680e+003,2.522828e+001
2.788609e+003,2.521689e+001
2.790537e+003,2.526961e+001
2.792466e+003,2.543187e+001
2.794394e+003,2.540765e+001
2.796323e+003,2.525129e+001
2.798251e+003,2.521890e+001
2.800180e+003,2.520644e+001
2.802108e+003,2.513023e+001
2.804037e+003,2.508953e+001
2.805965e+003,2.516187e+001
2.807894e+003,2.523877e+001
2.809822e+003,2.518174e+001
2.811751e+003,2.512376e+001
2.813679e+003,2.515177e+001
2.815608e+003,2.509827e+001
2.817536e+003,2.503440e+001
2.819465e+003,2.501933e+001
2.821393e+003,2.501065e+001
2.823322e+003,2.504438e+001
2.825250e+003,2.498788e+001
2.827179e+003,2.490424e+001
2.829107e+003,2.496591e+001
2.831036e+003,2.492950e+001
2.832964e+003,2.484315e+001
2.834893e+003,2.480507e+001
2.836821e+003,2.488286e+001
2.838750e+003,2.494872e+001
2.840678e+003,2.488306e+001
2.842607e+003,2.484357e+001
2.844535e+003,2.487257e+001
2.846464e+003,2.479831e+001
2.848392e+003,2.464809e+001
2.850321e+003,2.462660e+001
2.852249e+003,2.463947e+001
2.854178e+003,2.467723e+001
2.856106e+003,2.473312e+001
2.858035e+003,2.466379e+001
2.859963e+003,2.462302e+001
2.861892e+003,2.458521e+001
2.863820e+003,2.449521e+001
2.865749e+003,2.451361e+001
2.867677e+003,2.458340e+001
2.869606e+003,2.465724e+001
2.871534e+003,2.462249e+001
2.873463e+003,2.458893e+001
2.875391e+003,2.464368e+001
2.877320e+003,2.457944e+001
2.879248e+003,2.445615e+001
2.881177e+003,2.446846e+001
2.883105e+003,2.446296e+001
2.885034e+003,2.449273e+001
2.886962e+003,2.455281e+001
2.888891e+003,2.451254e+001
2.890819e+003,2.452196e+001
2.892748e+003,2.449825e+001
2.894676e+003,2.442034e+001
2.896605e+003,2.444366e+001
2.898533e+003,2.441579e+001
2.900462e+003,2.428859e+001
2.902390e+003,2.430329e+001
2.904319e+003,2.427328e+001
2.906247e+003,2.422089e+001
2.908176e+003,2.421146e+001
2.910104e+003,2.408230e+001
2.912033e+003,2.402209e+001
2.913961e+003,2.409590e+001
2.915890e+003,2.405523e+001
2.917818e+003,2.400796e+001
2.919747e+003,2.399393e+001
2.921675e+003,2.397153e+001
2.923604e+003,2.395751e+001
2.925532e+003,2.394952e+001
2.927461e+003,2.399098e+001
2.929389e+003,2.406233e+001
2.931318e+003,2.401464e+001
2.933246e+003,2.404730e+001
2.935175e+003,2.409114e+001
2.937103e+003,2.401329e+001
2.939032e+003,2.399427e+001
2.940960e+003,2.410630e+001
2.942889e+003,2.415257e+001
2.944817e+003,2.409028e+001
2.946746e+003,2.403224e+001
2.948674e+003,2.396158e+001
2.950603e+003,2.401149e+001
2.952531e+003,2.400698e+001
2.954460e+003,2.396741e+001
2.956388e+003,2.396321e+001
2.958317e+003,2.391297e+001
2.960245e+003,2.389367e+001
2.962174e+003,2.386394e+001
2.964102e+003,2.391977e+001
2.966031e+003,2.393303e+001
2.967959e+003,2.384697e+001
2.969888e+003,2.385152e+001
2.971816e+003,2.392499e+001
2.973745e+003,2.394682e+001
2.975673e+003,2.405088e+001
2.977602e+003,2.394676e+001
2.979530e+003,2.386814e+001
2.981459e+003,2.390437e+001
2.983387e+003,2.382739e+001
2.985316e+003,2.378452e+001
2.987244e+003,2.380896e+001
2.989173e+003,2.376850e+001
2.991101e+003,2.371626e+001
2.993030e+003,2.375671e+001
2.994958e+003,2.378128e+001
2.996887e+003,2.373689e+001
2.998815e+003,2.370050e+001
3.000744e+003,2.368944e+001
3.002672e+003,2.377038e+001
3.004601e+003,2.363658e+001
3.006529e+003,2.349170e+001
3.008458e+003,2.356026e+001
3.010386e+003,2.358986e+001
3.012315e+003,2.360474e+001
3.014243e+003,2.354180e+001
3.016172e+003,2.353185e+001
3.018100e+003,2.351109e+001
3.020029e+003,2.340065e+001
3.021957e+003,2.340251e+001
3.023886e+003,2.348742e+001
3.025814e+003,2.341627e+001
3.027743e+003,2.331602e+001
3.029671e+003,2.337384e+001
3.031600e+003,2.345472e+001
3.033528e+003,2.352749e+001
3.035457e+003,2.353889e+001
3.037385e+003,2.337855e+001
3.039314e+003,2.333700e+001
3.041242e+003,2.336579e+001
3.043171e+003,2.334148e+001
3.045099e+003,2.332055e+001
3.047028e+003,2.323404e+001
3.048956e+003,2.324795e+001
3.050885e+003,2.320201e+001
3.052813e+003,2.318197e+001
3.054742e+003,2.329099e+001
3.056670e+003,2.322622e+001
3.058599e+003,2.313190e+001
3.060527e+003,2.317480e+001
3.062456e+003,2.323745e+001
3.064384e+003,2.322218e+001
3.066313e+003,2.309067e+001
3.068241e+003,2.300235e+001
3.070170e+003,2.304564e+001
3.072098e+003,2.301408e+001
3.074027e+003,2.290128e+001
3.075955e+003,2.286443e+001
3.077884e+003,2.293268e+001
3.079812e+003,2.296812e+001
3.081741e+003,2.286461e+001
3.083669e+003,2.277486e+001
3.085598e+003,2.278870e+001
3.087526e+003,2.278890e+001
3.089455e+003,2.270707e+001
3.091383e+003,2.280570e+001
3.093312e+003,2.284012e+001
3.095240e+003,2.274625e+001
3.097169e+003,2.272003e+001
3.099097e+003,2.273643e+001
3.101026e+003,2.275833e+001
3.102954e+003,2.269384e+001
3.104883e+003,2.251827e+001
3.106811e+003,2.261158e+001
3.108740e+003,2.269746e+001
3.110668e+003,2.256677e+001
3.112597e+003,2.253223e+001
3.114525e+003,2.255594e+001
3.116454e+003,2.259908e+001
3.118382e+003,2.257740e+001
3.120311e+003,2.244321e+001
3.122239e+003,2.244744e+001
3.124167e+003,2.242631e+001
3.126096e+003,2.242968e+001
3.128025e+003,2.249283e+001
3.129953e+003,2.254564e+001
3.131882e+003,2.247603e+001
3.133810e+003,2.244319e+001
3.135739e+003,2.235047e+001
3.137667e+003,2.236060e+001
3.139595e+003,2.240202e+001
3.141524e+003,2.227581e+001
3.143453e+003,2.230340e+001
3.145381e+003,2.231792e+001
3.147310e+003,2.222541e+001
3.149238e+003,2.224911e+001
3.151167e+003,2.216399e+001
3.153095e+003,2.216098e+001
3.155023e+003,2.221949e+001
3.156952e+003,2.213543e+001
3.158881e+003,2.211541e+001
3.160809e+003,2.220253e+001
3.162738e+003,2.206160e+001
3.164666e+003,2.192920e+001
3.166594e+003,2.188310e+001
3.168523e+003,2.188775e+001
3.170452e+003,2.195893e+001
3.172380e+003,2.189053e+001
3.174309e+003,2.191066e+001
3.176237e+003,2.202360e+001
3.178166e+003,2.190612e+001
3.180094e+003,2.181540e+001
3.182022e+003,2.172747e+001
3.183951e+003,2.171569e+001
3.185880e+003,2.174068e+001
3.187808e+003,2.175288e+001
3.189737e+003,2.175692e+001
3.191665e+003,2.172538e+001
3.193594e+003,2.167273e+001
3.195522e+003,2.162932e+001
3.197450e+003,2.154654e+001
3.199379e+003,2.145257e+001
3.201308e+003,2.151228e+001
3.203236e+003,2.151758e+001
3.205165e+003,2.152662e+001
3.207093e+003,2.161639e+001
3.209021e+003,2.150551e+001
3.210950e+003,2.145843e+001
3.212878e+003,2.157061e+001
3.214807e+003,2.143445e+001
3.216736e+003,2.129757e+001
3.218664e+003,2.124974e+001
3.220593e+003,2.131937e+001
3.222521e+003,2.140948e+001
3.224449e+003,2.132163e+001
3.226378e+003,2.128595e+001
3.228306e+003,2.129877e+001
3.230235e+003,2.117237e+001
3.232164e+003,2.107284e+001
3.234092e+003,2.115411e+001
3.236021e+003,2.123257e+001
3.237949e+003,2.124633e+001
3.239877e+003,2.115612e+001
3.241806e+003,2.115944e+001
3.243734e+003,2.128235e+001
3.245663e+003,2.107921e+001
3.247592e+003,2.087554e+001
3.249520e+003,2.085224e+001
3.251448e+003,2.087657e+001
3.253377e+003,2.094706e+001
3.255305e+003,2.097738e+001
3.257234e+003,2.090807e+001
3.259162e+003,2.087822e+001
3.261091e+003,2.078817e+001
3.263020e+003,2.076748e+001
3.264948e+003,2.089131e+001
3.266876e+003,2.081297e+001
3.268805e+003,2.072163e+001
3.270733e+003,2.071367e+001
3.272662e+003,2.077584e+001
3.274591e+003,2.088108e+001
3.276519e+003,2.082161e+001
3.278448e+003,2.061860e+001
3.280376e+003,2.058379e+001
3.282304e+003,2.057130e+001
3.284233e+003,2.060447e+001
3.286161e+003,2.068503e+001
3.288090e+003,2.062800e+001
3.290019e+003,2.069234e+001
3.291947e+003,2.060209e+001
3.293875e+003,2.045922e+001
3.295804e+003,2.056884e+001
3.297732e+003,2.054963e+001
3.299661e+003,2.042403e+001
3.301589e+003,2.048940e+001
3.303518e+003,2.067913e+001
3.305447e+003,2.067242e+001
3.307375e+003,2.045506e+001
3.309303e+003,2.039631e+001
3.311232e+003,2.042783e+001
3.313160e+003,2.040345e+001
3.315089e+003,2.033242e+001
3.317017e+003,2.038148e+001
3.318946e+003,2.038099e+001
3.320875e+003,2.034465e+001
3.322803e+003,2.029108e+001
3.324731e+003,2.013017e+001
3.326660e+003,2.024850e+001
3.328588e+003,2.031678e+001
3.330517e+003,2.024223e+001
3.332445e+003,2.026910e+001
3.334374e+003,2.017841e+001
3.336302e+003,2.003676e+001
3.338231e+003,2.007343e+001
3.340159e+003,2.009244e+001
3.342088e+003,2.002667e+001
3.344016e+003,1.992609e+001
3.345945e+003,1.981038e+001
3.347873e+003,1.994076e+001
3.349802e+003,2.002551e+001
3.351730e+003,2.001392e+001
3.353659e+003,2.005761e+001
3.355587e+003,1.989198e+001
3.357516e+003,1.974022e+001
3.359444e+003,1.977538e+001
3.361373e+003,1.983501e+001
3.363302e+003,1.985910e+001
3.365230e+003,1.979119e+001
3.367158e+003,1.972892e+001
3.369087e+003,1.976894e+001
3.371015e+003,1.967853e+001
3.372944e+003,1.953060e+001
3.374872e+003,1.952709e+001
3.376801e+003,1.962169e+001
3.378729e+003,1.968589e+001
3.380658e+003,1.956394e+001
3.382586e+003,1.949903e+001
3.384515e+003,1.953850e+001
3.386443e+003,1.958082e+001
3.388372e+003,1.948019e+001
3.390300e+003,1.942566e+001
3.392229e+003,1.938574e+001
3.394157e+003,1.941110e+001
3.396086e+003,1.948484e+001
3.398014e+003,1.935492e+001
3.399943e+003,1.937091e+001
3.401871e+003,1.942319e+001
3.403800e+003,1.928550e+001
3.405728e+003,1.922735e+001
3.407657e+003,1.932867e+001
3.409585e+003,1.936134e+001
3.411514e+003,1.927012e+001
3.413442e+003,1.929976e+001
3.415371e+003,1.944563e+001
3.417299e+003,1.936432e+001
3.419228e+003,1.915189e+001
3.421156e+003,1.927124e+001
3.423085e+003,1.941111e+001
3.425013e+003,1.934725e+001
3.426942e+003,1.930787e+001
3.428870e+003,1.926447e+001
3.430799e+003,1.926803e+001
3.432727e+003,1.918842e+001
3.434656e+003,1.900026e+001
3.436584e+003,1.912458e+001
3.438513e+003,1.940442e+001
3.440441e+003,1.926001e+001
3.442370e+003,1.893082e+001
3.444298e+003,1.898734e+001
3.446227e+003,1.921827e+001
3.448155e+003,1.933335e+001
3.450084e+003,1.919689e+001
3.452012e+003,1.917516e+001
3.453941e+003,1.934171e+001
3.455869e+003,1.930431e+001
3.457798e+003,1.920760e+001
3.459726e+003,1.928019e+001
3.461655e+003,1.932615e+001
3.463583e+003,1.922375e+001
3.465512e+003,1.911481e+001
3.467440e+003,1.892756e+001
3.469369e+003,1.908747e+001
3.471297e+003,1.906688e+001
3.473226e+003,1.903071e+001
3.475154e+003,1.931150e+001
3.477083e+003,1.934118e+001
3.479011e+003,1.928098e+001
3.480940e+003,1.925106e+001
3.482868e+003,1.923082e+001
3.484797e+003,1.933641e+001
3.486725e+003,1.936715e+001
3.488654e+003,1.927811e+001
3.490582e+003,1.943808e+001
3.492511e+003,1.942292e+001
3.494439e+003,1.915673e+001
3.496368e+003,1.920912e+001
3.498296e+003,1.938018e+001
3.500225e+003,1.937898e+001
3.502153e+003,1.918920e+001
3.504082e+003,1.913392e+001
3.506010e+003,1.942347e+001
3.507939e+003,1.951317e+001
3.509867e+003,1.946159e+001
3.511796e+003,1.934749e+001
3.513724e+003,1.925622e+001
3.515653e+003,1.932134e+001
3.517581e+003,1.944426e+001
3.519510e+003,1.925745e+001
3.521438e+003,1.923429e+001
3.523367e+003,1.936473e+001
3.525295e+003,1.938401e+001
3.527224e+003,1.958732e+001
3.529152e+003,1.957268e+001
3.531081e+003,1.950078e+001
3.533009e+003,1.946241e+001
3.534938e+003,1.943005e+001
3.536866e+003,1.960403e+001
3.538795e+003,1.960710e+001
3.540723e+003,1.950178e+001
3.542652e+003,1.956047e+001
3.544580e+003,1.973966e+001
3.546509e+003,1.976783e+001
3.548437e+003,1.965680e+001
3.550366e+003,1.957178e+001
3.552294e+003,1.975291e+001
3.554223e+003,1.973926e+001
3.556151e+003,1.956571e+001
3.558080e+003,1.986543e+001
3.560008e+003,2.001418e+001
3.561937e+003,1.979519e+001
3.563865e+003,1.977228e+001
3.565794e+003,1.972555e+001
3.567722e+003,1.985025e+001
3.569651e+003,1.997236e+001
3.571579e+003,1.985291e+001
3.573508e+003,1.997375e+001
3.575436e+003,2.007106e+001
3.577365e+003,2.001354e+001
3.579293e+003,2.001749e+001
3.581222e+003,1.998046e+001
3.583150e+003,2.007304e+001
3.585079e+003,2.015690e+001
3.587007e+003,1.998451e+001
3.588936e+003,2.003946e+001
3.590864e+003,2.005074e+001
3.592793e+003,2.001438e+001
3.594721e+003,2.017121e+001
3.596650e+003,2.016428e+001
3.598578e+003,1.988805e+001
3.600507e+003,1.991713e+001
3.602435e+003,2.029426e+001
3.604364e+003,2.057385e+001
3.606292e+003,2.048559e+001
3.608221e+003,2.036843e+001
3.610149e+003,2.052487e+001
3.612078e+003,2.064091e+001
3.614006e+003,2.055907e+001
3.615935e+003,2.045680e+001
3.617863e+003,2.050191e+001
3.619792e+003,2.073016e+001
3.621720e+003,2.087896e+001
3.623649e+003,2.085743e+001
3.625577e+003,2.078896e+001
3.627506e+003,2.079417e+001
3.629434e+003,2.084770e+001
3.631363e+003,2.078152e+001
3.633291e+003,2.097126e+001
3.635220e+003,2.097995e+001
3.637148e+003,2.091667e+001
3.639077e+003,2.096466e+001
3.641005e+003,2.103986e+001
3.642934e+003,2.110238e+001
3.644862e+003,2.095724e+001
3.646791e+003,2.079497e+001
3.648719e+003,2.077358e+001
3.650648e+003,2.078206e+001
3.652576e+003,2.101429e+001
3.654505e+003,2.096156e+001
3.656433e+003,2.117656e+001
3.658362e+003,2.128295e+001
3.660290e+003,2.124424e+001
3.662219e+003,2.128570e+001
3.664147e+003,2.136656e+001
3.666076e+003,2.133448e+001
3.668004e+003,2.132177e+001
3.669933e+003,2.178617e+001
3.671861e+003,2.166570e+001
3.673790e+003,2.123157e+001
3.675718e+003,2.116506e+001
3.677647e+003,2.117042e+001
3.679575e+003,2.129158e+001
3.681504e+003,2.123574e+001
3.683432e+003,2.133285e+001
3.685361e+003,2.153974e+001
3.687289e+003,2.133545e+001
3.689218e+003,2.119957e+001
3.691146e+003,2.136834e+001
3.693075e+003,2.143923e+001
3.695003e+003,2.125694e+001
3.696932e+003,2.109319e+001
3.698860e+003,2.122335e+001
3.700789e+003,2.156258e+001
3.702717e+003,2.171447e+001
3.704646e+003,2.158961e+001
3.706574e+003,2.151579e+001
3.708503e+003,2.141379e+001
3.710431e+003,2.135505e+001
3.712360e+003,2.154880e+001
3.714288e+003,2.151926e+001
3.716217e+003,2.153730e+001
3.718145e+003,2.165561e+001
3.720074e+003,2.168234e+001
3.722002e+003,2.170401e+001
3.723931e+003,2.155861e+001
3.725859e+003,2.152555e+001
3.727788e+003,2.141267e+001
3.729716e+003,2.129551e+001
3.731645e+003,2.163486e+001
3.733573e+003,2.168153e+001
3.735502e+003,2.201123e+001
3.737430e+003,2.236449e+001
3.739359e+003,2.202462e+001
3.741287e+003,2.139719e+001
3.743216e+003,2.083392e+001
3.745144e+003,2.139912e+001
3.747073e+003,2.148264e+001
3.749001e+003,2.107944e+001
3.750930e+003,2.105340e+001
3.752858e+003,2.144680e+001
3.754787e+003,2.144045e+001
3.756715e+003,2.119290e+001
3.758644e+003,2.101114e+001
3.760572e+003,2.125364e+001
3.762500e+003,2.128656e+001
3.764429e+003,2.109587e+001
3.766358e+003,2.118530e+001
3.768286e+003,2.136974e+001
3.770215e+003,2.143245e+001
3.772143e+003,2.122597e+001
3.774072e+003,2.122041e+001
3.776000e+003,2.129613e+001
3.777928e+003,2.136027e+001
3.779857e+003,2.148343e+001
3.781786e+003,2.138989e+001
3.783714e+003,2.139830e+001
3.785643e+003,2.151545e+001
3.787571e+003,2.124924e+001
3.789500e+003,2.117229e+001
3.791428e+003,2.126567e+001
3.793356e+003,2.118348e+001
3.795285e+003,2.105873e+001
3.797214e+003,2.118020e+001
3.799142e+003,2.124141e+001
3.801071e+003,2.111989e+001
3.802999e+003,2.095800e+001
3.804927e+003,2.102745e+001
3.806856e+003,2.130397e+001
3.808785e+003,2.130127e+001
3.810713e+003,2.112510e+001
3.812642e+003,2.111604e+001
3.814570e+003,2.122115e+001
3.816499e+003,2.124913e+001
3.818427e+003,2.092759e+001
3.820355e+003,2.133861e+001
3.822284e+003,2.168511e+001
3.824213e+003,2.130078e+001
3.826141e+003,2.108191e+001
3.828070e+003,2.109403e+001
3.829998e+003,2.098571e+001
3.831927e+003,2.106725e+001
3.833855e+003,2.120968e+001
3.835783e+003,2.152587e+001
3.837712e+003,2.153505e+001
3.839641e+003,2.087554e+001
3.841569e+003,2.085599e+001
3.843498e+003,2.113359e+001
3.845426e+003,2.121855e+001
3.847354e+003,2.115368e+001
3.849283e+003,2.092053e+001
3.851211e+003,2.053222e+001
3.853140e+003,2.104509e+001
3.855069e+003,2.122866e+001
3.856997e+003,2.110026e+001
3.858926e+003,2.109713e+001
3.860854e+003,2.110337e+001
3.862782e+003,2.127505e+001
3.864711e+003,2.107307e+001
3.866639e+003,2.075605e+001
3.868568e+003,2.062681e+001
3.870497e+003,2.054740e+001
3.872425e+003,2.076933e+001
3.874354e+003,2.119020e+001
3.876282e+003,2.095963e+001
3.878210e+003,2.092525e+001
3.880139e+003,2.102707e+001
3.882067e+003,2.087740e+001
3.883996e+003,2.080690e+001
3.885925e+003,2.093874e+001
3.887853e+003,2.100044e+001
3.889781e+003,2.131358e+001
3.891710e+003,2.125095e+001
3.893638e+003,2.100179e+001
3.895567e+003,2.101848e+001
3.897495e+003,2.109320e+001
3.899424e+003,2.116995e+001
3.901353e+003,2.104490e+001
3.903281e+003,2.117726e+001
3.905209e+003,2.134438e+001
3.907138e+003,2.102172e+001
3.909066e+003,2.073153e+001
3.910995e+003,2.087070e+001
3.912924e+003,2.100921e+001
3.914852e+003,2.098854e+001
3.916781e+003,2.091801e+001
3.918709e+003,2.079345e+001
3.920637e+003,2.072813e+001
3.922566e+003,2.057082e+001
3.924494e+003,2.075987e+001
3.926423e+003,2.098955e+001
3.928352e+003,2.081681e+001
3.930280e+003,2.073356e+001
3.932208e+003,2.103324e+001
3.934137e+003,2.092559e+001
3.936065e+003,2.074871e+001
3.937994e+003,2.067793e+001
3.939922e+003,2.055433e+001
3.941851e+003,2.087649e+001
3.943780e+003,2.097070e+001
3.945708e+003,2.065551e+001
3.947636e+003,2.079775e+001
3.949565e+003,2.101854e+001
3.951493e+003,2.085672e+001
3.953422e+003,2.076539e+001
3.955350e+003,2.059974e+001
3.957279e+003,2.060906e+001
3.959208e+003,2.070483e+001
3.961136e+003,2.066232e+001
3.963064e+003,2.075248e+001
3.964993e+003,2.068784e+001
3.966921e+003,2.066300e+001
3.968850e+003,2.077666e+001
3.970778e+003,2.083925e+001
3.972707e+003,2.080899e+001
3.974635e+003,2.057738e+001
3.976564e+003,2.056229e+001
3.978492e+003,2.074108e+001
3.980421e+003,2.070271e+001
3.982349e+003,2.059979e+001
3.984278e+003,2.055721e+001
3.986206e+003,2.046599e+001
3.988135e+003,2.054005e+001
3.990063e+003,2.065415e+001
3.991992e+003,2.050323e+001
3.993920e+003,2.044138e+001
3.995849e+003,2.049487e+001
3.997777e+003,2.037242e+001
3.999706e+003,2.044703e+001
