3.991992e+002,6.483860e+001
4.011277e+002,6.689225e+001
4.030562e+002,6.784200e+001
4.049847e+002,7.063403e+001
4.069132e+002,7.299046e+001
4.088417e+002,7.323483e+001
4.107702e+002,7.291757e+001
4.126987e+002,7.321937e+001
4.146272e+002,7.342204e+001
4.165557e+002,7.357320e+001
4.184842e+002,7.489749e+001
4.204127e+002,7.580871e+001
4.223412e+002,7.540778e+001
4.242697e+002,7.533775e+001
4.261982e+002,7.481121e+001
4.281267e+002,7.314600e+001
4.300552e+002,7.189288e+001
4.319837e+002,7.204890e+001
4.339122e+002,7.137563e+001
4.358407e+002,7.029696e+001
4.377692e+002,6.902885e+001
4.396977e+002,6.711245e+001
4.416262e+002,6.467605e+001
4.435547e+002,6.240579e+001
4.454832e+002,6.075457e+001
4.474117e+002,5.851656e+001
4.493401e+002,5.622662e+001
4.512686e+002,5.498842e+001
4.531971e+002,5.272978e+001
4.551256e+002,4.965347e+001
4.570541e+002,4.782660e+001
4.589826e+002,4.570150e+001
4.609111e+002,4.390278e+001
4.628396e+002,4.403856e+001
4.647681e+002,4.547495e+001
4.666966e+002,4.637394e+001
4.686251e+002,4.717666e+001
4.705536e+002,4.871837e+001
4.724821e+002,5.018805e+001
4.744106e+002,5.194960e+001
4.763391e+002,5.470873e+001
4.782676e+002,5.735894e+001
4.801961e+002,5.887939e+001
4.821246e+002,6.026387e+001
4.840531e+002,6.166407e+001
4.859816e+002,6.206826e+001
4.879101e+002,6.240266e+001
4.898386e+002,6.322223e+001
4.917671e+002,6.387783e+001
4.936956e+002,6.396543e+001
4.956241e+002,6.431554e+001
4.975526e+002,6.453998e+001
4.994811e+002,6.366313e+001
5.014096e+002,6.289153e+001
5.033381e+002,6.255748e+001
5.052666e+002,6.181009e+001
5.071951e+002,6.110583e+001
5.091236e+002,6.070000e+001
5.110521e+002,5.970391e+001
5.129806e+002,5.828283e+001
5.149091e+002,5.707094e+001
5.168376e+002,5.585828e+001
5.187661e+002,5.401653e+001
5.206946e+002,5.226277e+001
5.226231e+002,5.109941e+001
5.245516e+002,4.962978e+001
5.264801e+002,4.733086e+001
5.284086e+002,4.523119e+001
5.303371e+002,4.298334e+001
5.322656e+002,4.053537e+001
5.341941e+002,3.872806e+001
5.361226e+002,3.734508e+001
5.380511e+002,3.531504e+001
5.399796e+002,3.340798e+001
5.419081e+002,3.184304e+001
5.438365e+002,3.003207e+001
5.457651e+002,2.776859e+001
5.476936e+002,2.654240e+001
5.496221e+002,2.612181e+001
5.515506e+002,2.564850e+001
5.534791e+002,2.605157e+001
5.554076e+002,2.627996e+001
5.573361e+002,2.528058e+001
5.592646e+002,2.496993e+001
5.611931e+002,2.570784e+001
5.631216e+002,2.595302e+001
5.650500e+002,2.630607e+001
5.669786e+002,2.727292e+001
5.689070e+002,2.826932e+001
5.708356e+002,2.835924e+001
5.727640e+002,2.859351e+001
5.746926e+002,2.924174e+001
5.766210e+002,3.018317e+001
5.785496e+002,3.202094e+001
5.804780e+002,3.494969e+001
5.824066e+002,3.746471e+001
5.843350e+002,3.941035e+001
5.862635e+002,4.183264e+001
5.881920e+002,4.429638e+001
5.901205e+002,4.632156e+001
5.920490e+002,4.850872e+001
5.939775e+002,5.068106e+001
5.959060e+002,5.245056e+001
5.978345e+002,5.417643e+001
5.997631e+002,5.591167e+001
6.016915e+002,5.726068e+001
6.036201e+002,5.827608e+001
6.055485e+002,5.944129e+001
6.074771e+002,6.080502e+001
6.094055e+002,6.206706e+001
6.113340e+002,6.333662e+001
6.132625e+002,6.460829e+001
6.151910e+002,6.558788e+001
6.171195e+002,6.637547e+001
6.190480e+002,6.742596e+001
6.209765e+002,6.849853e+001
6.229050e+002,6.933044e+001
6.248335e+002,7.033463e+001
6.267620e+002,7.135754e+001
6.286905e+002,7.198463e+001
6.306190e+002,7.250536e+001
6.325475e+002,7.303774e+001
6.344760e+002,7.340281e+001
6.364045e+002,7.367397e+001
6.383330e+002,7.398484e+001
6.402615e+002,7.428533e+001
6.421900e+002,7.434991e+001
6.441185e+002,7.431486e+001
6.460470e+002,7.409541e+001
6.479755e+002,7.355037e+001
6.499040e+002,7.297497e+001
6.518325e+002,7.253340e+001
6.537610e+002,7.189454e+001
6.556895e+002,7.098323e+001
6.576180e+002,7.006413e+001
6.595465e+002,6.926981e+001
6.614750e+002,6.845244e+001
6.634035e+002,6.779884e+001
6.653320e+002,6.733471e+001
6.672605e+002,6.639710e+001
6.691890e+002,6.604251e+001
6.711175e+002,6.692759e+001
6.730460e+002,6.737045e+001
6.749745e+002,6.762024e+001
6.769030e+002,6.801237e+001
6.788315e+002,6.860777e+001
6.807599e+002,6.910182e+001
6.826885e+002,6.963822e+001
6.846169e+002,7.034042e+001
6.865455e+002,7.082248e+001
6.884739e+002,7.116993e+001
6.904025e+002,7.162553e+001
6.923309e+002,7.195180e+001
6.942595e+002,7.205718e+001
6.961880e+002,7.243025e+001
6.981165e+002,7.299032e+001
7.000450e+002,7.343442e+001
7.019734e+002,7.385313e+001
7.039020e+002,7.433831e+001
7.058304e+002,7.470103e+001
7.077590e+002,7.498860e+001
7.096874e+002,7.544065e+001
7.116160e+002,7.596423e+001
7.135444e+002,7.634517e+001
7.154730e+002,7.681226e+001
7.174014e+002,7.727354e+001
7.193300e+002,7.754488e+001
7.212584e+002,7.786050e+001
7.231870e+002,7.833337e+001
7.251154e+002,7.873302e+001
7.270439e+002,7.908315e+001
7.289724e+002,7.944485e+001
7.309009e+002,7.985683e+001
7.328294e+002,8.012946e+001
7.347579e+002,8.040874e+001
7.366864e+002,8.068860e+001
7.386149e+002,8.089391e+001
7.405434e+002,8.107008e+001
7.424719e+002,8.139709e+001
7.444004e+002,8.176324e+001
7.463289e+002,8.205119e+001
7.482574e+002,8.242399e+001
7.501859e+002,8.289928e+001
7.521144e+002,8.335669e+001
7.540429e+002,8.399635e+001
7.559714e+002,8.480724e+001
7.578999e+002,8.560016e+001
7.598284e+002,8.630345e+001
7.617569e+002,8.708337e+001
7.636854e+002,8.777878e+001
7.656139e+002,8.835786e+001
7.675424e+002,8.896665e+001
7.694709e+002,8.966177e+001
7.713994e+002,9.028775e+001
7.733279e+002,9.094337e+001
7.752564e+002,9.155309e+001
7.771849e+002,9.210381e+001
7.791134e+002,9.259103e+001
7.810419e+002,9.312565e+001
7.829704e+002,9.364614e+001
7.848989e+002,9.413406e+001
7.868274e+002,9.462319e+001
7.887559e+002,9.524386e+001
7.906844e+002,9.570063e+001
7.926129e+002,9.608054e+001
7.945414e+002,9.646960e+001
7.964699e+002,9.684862e+001
7.983984e+002,9.717621e+001
8.003269e+002,9.762428e+001
8.022554e+002,9.803377e+001
8.041839e+002,9.835391e+001
8.061124e+002,9.865524e+001
8.080409e+002,9.898946e+001
8.099694e+002,9.918146e+001
8.118979e+002,9.934686e+001
8.138264e+002,9.956771e+001
8.157549e+002,9.974753e+001
8.176833e+002,9.985651e+001
8.196119e+002,9.998908e+001
8.215403e+002,1.000000e+002
8.234689e+002,9.993581e+001
8.253973e+002,9.980360e+001
8.273259e+002,9.970190e+001
8.292543e+002,9.952525e+001
8.311829e+002,9.932991e+001
8.331113e+002,9.911296e+001
8.350399e+002,9.889619e+001
8.369683e+002,9.860220e+001
8.388969e+002,9.835474e+001
8.408253e+002,9.810711e+001
8.427538e+002,9.784617e+001
8.446824e+002,9.765903e+001
8.466108e+002,9.752659e+001
8.485394e+002,9.738254e+001
8.504678e+002,9.723158e+001
8.523964e+002,9.705980e+001
8.543248e+002,9.689262e+001
8.562534e+002,9.665873e+001
8.581818e+002,9.644844e+001
8.601104e+002,9.620699e+001
8.620388e+002,9.595174e+001
8.639673e+002,9.561975e+001
8.658958e+002,9.524609e+001
8.678243e+002,9.470638e+001
8.697528e+002,9.412953e+001
8.716813e+002,9.354238e+001
8.736098e+002,9.290443e+001
8.755383e+002,9.212589e+001
8.774668e+002,9.134007e+001
8.793953e+002,9.053159e+001
8.813238e+002,8.958562e+001
8.832523e+002,8.847519e+001
8.851808e+002,8.735880e+001
8.871093e+002,8.617827e+001
8.890378e+002,8.494328e+001
8.909663e+002,8.366785e+001
8.928948e+002,8.232964e+001
8.948233e+002,8.082841e+001
8.967518e+002,7.926131e+001
8.986803e+002,7.765422e+001
9.006088e+002,7.592154e+001
9.025373e+002,7.405286e+001
9.044658e+002,7.219827e+001
9.063943e+002,7.024728e+001
9.083228e+002,6.814731e+001
9.102513e+002,6.593336e+001
9.121798e+002,6.359586e+001
9.141083e+002,6.109761e+001
9.160368e+002,5.857737e+001
9.179653e+002,5.613331e+001
9.198938e+002,5.354150e+001
9.218223e+002,5.086475e+001
9.237508e+002,4.825633e+001
9.256793e+002,4.565359e+001
9.276078e+002,4.296922e+001
9.295363e+002,4.042776e+001
9.314648e+002,3.806002e+001
9.333932e+002,3.579657e+001
9.353218e+002,3.364515e+001
9.372502e+002,3.174866e+001
9.391788e+002,2.966293e+001
9.411072e+002,2.741063e+001
9.430358e+002,2.546130e+001
9.449643e+002,2.385036e+001
9.468928e+002,2.225206e+001
9.488213e+002,2.115841e+001
9.507498e+002,2.021954e+001
9.526783e+002,1.908673e+001
9.546068e+002,1.776759e+001
9.565353e+002,1.709093e+001
9.584637e+002,1.611043e+001
9.603923e+002,1.500796e+001
9.623207e+002,1.459839e+001
9.642493e+002,1.472612e+001
9.661777e+002,1.423772e+001
9.681063e+002,1.388530e+001
9.700347e+002,1.366827e+001
9.719633e+002,1.340815e+001
9.738917e+002,1.228870e+001
9.758203e+002,1.236521e+001
9.777487e+002,1.262035e+001
9.796772e+002,1.257273e+001
9.816057e+002,1.227634e+001
9.835342e+002,1.228585e+001
9.854627e+002,1.161793e+001
9.873912e+002,1.134652e+001
9.893197e+002,1.105175e+001
9.912482e+002,1.106221e+001
9.931768e+002,1.070828e+001
9.951052e+002,1.124387e+001
9.970338e+002,1.168010e+001
9.989622e+002,1.136536e+001
1.000891e+003,1.029031e+001
1.002819e+003,1.031761e+001
1.004748e+003,1.000000e+001
1.006676e+003,1.012233e+001
1.008605e+003,1.050152e+001
1.010533e+003,1.089460e+001
1.012462e+003,1.064099e+001
1.014390e+003,1.095746e+001
1.016319e+003,1.103688e+001
1.018247e+003,1.106408e+001
1.020176e+003,1.108227e+001
1.022104e+003,1.221736e+001
1.024033e+003,1.246713e+001
1.025961e+003,1.263006e+001
1.027890e+003,1.314853e+001
1.029818e+003,1.349044e+001
1.031747e+003,1.327583e+001
1.033675e+003,1.421838e+001
1.035604e+003,1.513957e+001
1.037532e+003,1.575178e+001
1.039461e+003,1.599248e+001
1.041389e+003,1.644678e+001
1.043318e+003,1.643106e+001
1.045246e+003,1.661509e+001
1.047175e+003,1.694234e+001
1.049103e+003,1.728656e+001
1.051032e+003,1.733318e+001
1.052960e+003,1.795632e+001
1.054889e+003,1.853685e+001
1.056817e+003,1.876234e+001
1.058746e+003,1.883044e+001
1.060674e+003,1.942150e+001
1.062603e+003,1.978227e+001
1.064531e+003,2.034297e+001
1.066460e+003,2.136221e+001
1.068388e+003,2.236202e+001
1.070317e+003,2.290431e+001
1.072245e+003,2.366473e+001
1.074174e+003,2.437053e+001
1.076102e+003,2.494054e+001
1.078031e+003,2.542586e+001
1.079959e+003,2.613474e+001
1.081888e+003,2.665214e+001
1.083816e+003,2.736772e+001
1.085745e+003,2.798632e+001
1.087673e+003,2.835966e+001
1.089602e+003,2.857079e+001
1.091530e+003,2.900253e+001
1.093459e+003,2.941467e+001
1.095387e+003,2.987955e+001
1.097316e+003,3.032400e+001
1.099244e+003,3.100600e+001
1.101173e+003,3.140363e+001
1.103101e+003,3.163415e+001
1.105030e+003,3.199468e+001
1.106958e+003,3.242783e+001
1.108887e+003,3.262779e+001
1.110815e+003,3.318636e+001
1.112744e+003,3.386016e+001
1.114672e+003,3.444603e+001
1.116601e+003,3.487964e+001
1.118529e+003,3.540593e+001
1.120458e+003,3.586247e+001
1.122386e+003,3.640432e+001
1.124315e+003,3.702787e+001
1.126243e+003,3.778136e+001
1.128172e+003,3.839292e+001
1.130100e+003,3.903085e+001
1.132029e+003,3.965983e+001
1.133957e+003,4.032286e+001
1.135886e+003,4.104105e+001
1.137814e+003,4.180644e+001
1.139743e+003,4.252767e+001
1.141671e+003,4.322548e+001
1.143600e+003,4.395738e+001
1.145528e+003,4.478069e+001
1.147457e+003,4.540788e+001
1.149385e+003,4.602264e+001
1.151314e+003,4.673018e+001
1.153242e+003,4.747181e+001
1.155171e+003,4.813959e+001
1.157099e+003,4.887104e+001
1.159028e+003,4.954007e+001
1.160956e+003,5.010400e+001
1.162885e+003,5.066074e+001
1.164813e+003,5.131244e+001
1.166742e+003,5.188470e+001
1.168670e+003,5.245139e+001
1.170599e+003,5.303394e+001
1.172527e+003,5.362631e+001
1.174456e+003,5.415463e+001
1.176384e+003,5.469445e+001
1.178313e+003,5.516684e+001
1.180241e+003,5.562201e+001
1.182170e+003,5.611660e+001
1.184098e+003,5.665987e+001
1.186027e+003,5.716904e+001
1.187955e+003,5.762546e+001
1.189884e+003,5.804940e+001
1.191812e+003,5.844949e+001
1.193741e+003,5.880889e+001
1.195669e+003,5.924593e+001
1.197598e+003,5.967178e+001
1.199526e+003,6.006289e+001
1.201455e+003,6.046168e+001
1.203383e+003,6.086105e+001
1.205312e+003,6.117765e+001
1.207240e+003,6.149945e+001
1.209169e+003,6.184620e+001
1.211097e+003,6.219701e+001
1.213026e+003,6.251527e+001
1.214954e+003,6.284649e+001
1.216883e+003,6.316186e+001
1.218811e+003,6.347175e+001
1.220740e+003,6.374770e+001
1.222668e+003,6.403252e+001
1.224597e+003,6.429997e+001
1.226525e+003,6.455968e+001
1.228453e+003,6.484235e+001
1.230382e+003,6.516166e+001
1.232311e+003,6.543052e+001
1.234239e+003,6.567681e+001
1.236167e+003,6.591624e+001
1.238096e+003,6.613201e+001
1.240025e+003,6.635445e+001
1.241953e+003,6.662252e+001
1.243882e+003,6.688605e+001
1.245810e+003,6.712335e+001
1.247739e+003,6.736016e+001
1.249667e+003,6.759206e+001
1.251596e+003,6.775916e+001
1.253524e+003,6.795705e+001
1.255453e+003,6.817189e+001
1.257381e+003,6.835599e+001
1.259310e+003,6.855453e+001
1.261238e+003,6.881293e+001
1.263167e+003,6.901765e+001
1.265095e+003,6.918079e+001
1.267024e+003,6.935795e+001
1.268952e+003,6.953125e+001
1.270880e+003,6.969852e+001
1.272809e+003,6.989424e+001
1.274738e+003,7.011627e+001
1.276666e+003,7.031606e+001
1.278594e+003,7.044708e+001
1.280523e+003,7.061029e+001
1.282452e+003,7.078857e+001
1.284380e+003,7.092381e+001
1.286308e+003,7.108582e+001
1.288237e+003,7.128246e+001
1.290166e+003,7.144791e+001
1.292094e+003,7.161311e+001
1.294022e+003,7.178684e+001
1.295951e+003,7.190547e+001
1.297880e+003,7.201457e+001
1.299808e+003,7.218942e+001
1.301736e+003,7.235658e+001
1.303665e+003,7.248434e+001
1.305594e+003,7.264199e+001
1.307522e+003,7.279094e+001
1.309450e+003,7.289993e+001
1.311379e+003,7.298110e+001
1.313307e+003,7.311684e+001
1.315236e+003,7.327917e+001
1.317164e+003,7.338508e+001
1.319093e+003,7.352805e+001
1.321021e+003,7.370013e+001
1.322950e+003,7.382277e+001
1.324878e+003,7.391595e+001
1.326807e+003,7.403577e+001
1.328735e+003,7.414317e+001
1.330664e+003,7.425070e+001
1.332592e+003,7.439641e+001
1.334521e+003,7.449894e+001
1.336449e+003,7.455262e+001
1.338378e+003,7.464930e+001
1.340307e+003,7.483111e+001
1.342235e+003,7.491914e+001
1.344163e+003,7.498014e+001
1.346092e+003,7.507521e+001
1.348021e+003,7.517370e+001
1.349949e+003,7.527089e+001
1.351877e+003,7.535822e+001
1.353806e+003,7.541168e+001
1.355734e+003,7.544686e+001
1.357663e+003,7.550504e+001
1.359591e+003,7.557490e+001
1.361520e+003,7.561100e+001
1.363448e+003,7.576061e+001
1.365377e+003,7.587209e+001
1.367305e+003,7.590103e+001
1.369234e+003,7.594661e+001
1.371162e+003,7.599718e+001
1.373091e+003,7.601657e+001
1.375019e+003,7.616385e+001
1.376948e+003,7.626772e+001
1.378876e+003,7.635546e+001
1.380805e+003,7.643844e+001
1.382733e+003,7.649786e+001
1.384662e+003,7.655566e+001
1.386590e+003,7.663622e+001
1.388519e+003,7.675113e+001
1.390447e+003,7.681441e+001
1.392376e+003,7.684988e+001
1.394304e+003,7.692392e+001
1.396233e+003,7.701019e+001
1.398161e+003,7.705544e+001
1.400090e+003,7.716739e+001
1.402018e+003,7.717631e+001
1.403947e+003,7.721137e+001
1.405875e+003,7.736209e+001
1.407804e+003,7.742551e+001
1.409732e+003,7.746571e+001
1.411661e+003,7.752732e+001
1.413589e+003,7.754534e+001
1.415518e+003,7.752651e+001
1.417446e+003,7.752666e+001
1.419375e+003,7.773831e+001
1.421303e+003,7.781296e+001
1.423232e+003,7.783045e+001
1.425160e+003,7.797228e+001
1.427089e+003,7.796590e+001
1.429017e+003,7.799317e+001
1.430946e+003,7.810488e+001
1.432874e+003,7.814825e+001
1.434803e+003,7.811131e+001
1.436731e+003,7.833979e+001
1.438660e+003,7.849233e+001
1.440588e+003,7.848775e+001
1.442517e+003,7.851961e+001
1.444445e+003,7.854417e+001
1.446374e+003,7.856013e+001
1.448302e+003,7.867523e+001
1.450231e+003,7.873556e+001
1.452159e+003,7.876183e+001
1.454088e+003,7.870782e+001
1.456016e+003,7.865428e+001
1.457945e+003,7.896188e+001
1.459873e+003,7.904579e+001
1.461802e+003,7.899709e+001
1.463730e+003,7.897333e+001
1.465659e+003,7.910352e+001
1.467587e+003,7.916051e+001
1.469516e+003,7.913074e+001
1.471444e+003,7.907504e+001
1.473373e+003,7.921358e+001
1.475301e+003,7.931413e+001
1.477230e+003,7.942313e+001
1.479158e+003,7.939714e+001
1.481087e+003,7.939628e+001
1.483015e+003,7.946957e+001
1.484944e+003,7.941530e+001
1.486872e+003,7.935527e+001
1.488801e+003,7.937305e+001
1.490729e+003,7.954839e+001
1.492658e+003,7.954936e+001
1.494586e+003,7.946934e+001
1.496515e+003,7.950157e+001
1.498443e+003,7.959451e+001
1.500372e+003,7.963117e+001
1.502300e+003,7.960587e+001
1.504229e+003,7.942217e+001
1.506157e+003,7.925523e+001
1.508086e+003,7.969038e+001
1.510014e+003,7.973644e+001
1.511943e+003,7.970581e+001
1.513871e+003,7.964851e+001
1.515800e+003,7.958818e+001
1.517728e+003,7.967237e+001
1.519657e+003,7.954100e+001
1.521585e+003,7.966299e+001
1.523514e+003,7.974852e+001
1.525442e+003,7.972437e+001
1.527371e+003,7.984287e+001
1.529299e+003,7.986561e+001
1.531228e+003,7.971650e+001
1.533156e+003,7.971283e+001
1.535085e+003,7.984151e+001
1.537013e+003,7.968814e+001
1.538942e+003,7.951678e+001
1.540870e+003,7.979505e+001
1.542799e+003,7.983531e+001
1.544727e+003,7.992269e+001
1.546656e+003,7.994186e+001
1.548584e+003,7.985500e+001
1.550513e+003,7.988412e+001
1.552441e+003,7.985410e+001
1.554370e+003,7.984568e+001
1.556298e+003,7.974049e+001
1.558227e+003,7.961369e+001
1.560155e+003,8.017572e+001
1.562084e+003,7.997147e+001
1.564012e+003,7.986986e+001
1.565941e+003,7.986671e+001
1.567869e+003,7.979395e+001
1.569798e+003,7.985087e+001
1.571726e+003,7.989058e+001
1.573655e+003,7.973718e+001
1.575583e+003,7.969233e+001
1.577512e+003,7.975761e+001
1.579440e+003,7.968827e+001
1.581369e+003,7.958414e+001
1.583297e+003,7.950467e+001
1.585226e+003,7.940212e+001
1.587154e+003,7.930414e+001
1.589083e+003,7.914807e+001
1.591011e+003,7.898800e+001
1.592940e+003,7.881322e+001
1.594868e+003,7.865122e+001
1.596797e+003,7.843134e+001
1.598725e+003,7.821524e+001
1.600654e+003,7.790468e+001
1.602582e+003,7.758689e+001
1.604511e+003,7.721231e+001
1.606439e+003,7.680907e+001
1.608368e+003,7.631839e+001
1.610296e+003,7.584367e+001
1.612225e+003,7.528083e+001
1.614153e+003,7.471535e+001
1.616082e+003,7.397729e+001
1.618010e+003,7.326412e+001
1.619939e+003,7.259073e+001
1.621867e+003,7.189268e+001
1.623796e+003,7.102405e+001
1.625724e+003,7.040047e+001
1.627653e+003,6.964982e+001
1.629581e+003,6.893177e+001
1.631510e+003,6.825561e+001
1.633438e+003,6.765324e+001
1.635367e+003,6.681998e+001
1.637295e+003,6.627782e+001
1.639224e+003,6.577593e+001
1.641152e+003,6.522106e+001
1.643081e+003,6.453068e+001
1.645009e+003,6.396969e+001
1.646938e+003,6.339582e+001
1.648866e+003,6.337137e+001
1.650795e+003,6.319841e+001
1.652723e+003,6.331356e+001
1.654652e+003,6.357354e+001
1.656580e+003,6.362238e+001
1.658509e+003,6.365233e+001
1.660437e+003,6.372574e+001
1.662366e+003,6.392265e+001
1.664294e+003,6.432259e+001
1.666223e+003,6.441380e+001
1.668151e+003,6.459592e+001
1.670080e+003,6.512504e+001
1.672008e+003,6.556638e+001
1.673937e+003,6.581599e+001
1.675865e+003,6.649165e+001
1.677794e+003,6.681217e+001
1.679722e+003,6.712775e+001
1.681651e+003,6.740229e+001
1.683579e+003,6.779449e+001
1.685508e+003,6.876244e+001
1.687436e+003,6.906794e+001
1.689365e+003,6.953828e+001
1.691293e+003,7.003934e+001
1.693222e+003,7.024143e+001
1.695150e+003,7.059155e+001
1.697079e+003,7.125441e+001
1.699007e+003,7.151756e+001
1.700936e+003,7.237794e+001
1.702864e+003,7.261381e+001
1.704793e+003,7.287502e+001
1.706721e+003,7.342100e+001
1.708650e+003,7.374562e+001
1.710578e+003,7.405457e+001
1.712507e+003,7.427797e+001
1.714435e+003,7.451392e+001
1.716364e+003,7.489836e+001
1.718292e+003,7.554446e+001
1.720221e+003,7.581965e+001
1.722149e+003,7.598896e+001
1.724078e+003,7.630494e+001
1.726006e+003,7.653580e+001
1.727935e+003,7.673155e+001
1.729863e+003,7.696899e+001
1.731792e+003,7.712124e+001
1.733720e+003,7.746087e+001
1.735649e+003,7.793697e+001
1.737577e+003,7.789048e+001
1.739506e+003,7.809717e+001
1.741434e+003,7.833801e+001
1.743363e+003,7.851454e+001
1.745291e+003,7.867642e+001
1.747220e+003,7.882222e+001
1.749148e+003,7.905985e+001
1.751077e+003,7.934296e+001
1.753005e+003,7.952503e+001
1.754934e+003,7.957275e+001
1.756862e+003,7.975697e+001
1.758791e+003,7.989409e+001
1.760719e+003,7.998693e+001
1.762648e+003,8.027295e+001
1.764576e+003,8.035878e+001
1.766505e+003,8.040194e+001
1.768433e+003,8.053005e+001
1.770362e+003,8.052209e+001
1.772290e+003,8.069214e+001
1.774219e+003,8.094225e+001
1.776147e+003,8.101249e+001
1.778076e+003,8.106554e+001
1.780004e+003,8.114106e+001
1.781933e+003,8.126841e+001
1.783861e+003,8.132565e+001
1.785790e+003,8.147979e+001
1.787718e+003,8.155157e+001
1.789647e+003,8.154341e+001
1.791575e+003,8.160343e+001
1.793504e+003,8.183088e+001
1.795432e+003,8.188464e+001
1.797361e+003,8.192825e+001
1.799289e+003,8.196600e+001
1.801218e+003,8.210535e+001
1.803146e+003,8.219390e+001
1.805075e+003,8.226096e+001
1.807003e+003,8.230119e+001
1.808932e+003,8.234737e+001
1.810860e+003,8.242714e+001
1.812789e+003,8.255732e+001
1.814717e+003,8.259036e+001
1.816646e+003,8.263708e+001
1.818574e+003,8.270564e+001
1.820503e+003,8.279249e+001
1.822431e+003,8.279415e+001
1.824360e+003,8.283923e+001
1.826288e+003,8.293240e+001
1.828217e+003,8.288309e+001
1.830145e+003,8.299039e+001
1.832074e+003,8.313443e+001
1.834002e+003,8.315565e+001
1.835931e+003,8.319177e+001
1.837859e+003,8.323558e+001
1.839788e+003,8.327650e+001
1.841716e+003,8.323024e+001
1.843645e+003,8.328242e+001
1.845573e+003,8.340975e+001
1.847502e+003,8.344935e+001
1.849430e+003,8.349067e+001
1.851359e+003,8.352679e+001
1.853287e+003,8.356064e+001
1.855216e+003,8.359386e+001
1.857144e+003,8.361185e+001
1.859073e+003,8.366116e+001
1.861001e+003,8.369227e+001
1.862930e+003,8.371378e+001
1.864858e+003,8.371400e+001
1.866786e+003,8.369325e+001
1.868715e+003,8.376081e+001
1.870644e+003,8.387460e+001
1.872572e+003,8.387675e+001
1.874500e+003,8.391347e+001
1.876429e+003,8.394605e+001
1.878358e+003,8.398708e+001
1.880286e+003,8.401192e+001
1.882215e+003,8.403941e+001
1.884143e+003,8.407918e+001
1.886072e+003,8.412306e+001
1.888000e+003,8.411652e+001
1.889929e+003,8.417435e+001
1.891857e+003,8.419999e+001
1.893786e+003,8.421191e+001
1.895714e+003,8.427472e+001
1.897643e+003,8.430944e+001
1.899571e+003,8.429414e+001
1.901500e+003,8.430544e+001
1.903428e+003,8.432615e+001
1.905357e+003,8.435334e+001
1.907285e+003,8.435136e+001
1.909214e+003,8.439795e+001
1.911142e+003,8.446101e+001
1.913071e+003,8.445766e+001
1.914999e+003,8.441050e+001
1.916927e+003,8.441043e+001
1.918856e+003,8.448231e+001
1.920785e+003,8.446790e+001
1.922713e+003,8.450002e+001
1.924641e+003,8.455395e+001
1.926570e+003,8.453374e+001
1.928499e+003,8.451764e+001
1.930427e+003,8.450927e+001
1.932355e+003,8.452258e+001
1.934284e+003,8.451627e+001
1.936213e+003,8.453018e+001
1.938141e+003,8.453533e+001
1.940069e+003,8.450570e+001
1.941998e+003,8.451221e+001
1.943927e+003,8.456499e+001
1.945855e+003,8.452641e+001
1.947783e+003,8.452297e+001
1.949712e+003,8.451965e+001
1.951641e+003,8.452473e+001
1.953569e+003,8.452310e+001
1.955497e+003,8.454144e+001
1.957426e+003,8.453534e+001
1.959354e+003,8.451344e+001
1.961283e+003,8.451298e+001
1.963211e+003,8.453556e+001
1.965140e+003,8.448650e+001
1.967068e+003,8.449568e+001
1.968997e+003,8.453942e+001
1.970925e+003,8.450859e+001
1.972854e+003,8.448704e+001
1.974782e+003,8.450619e+001
1.976711e+003,8.449487e+001
1.978639e+003,8.448641e+001
1.980568e+003,8.447589e+001
1.982496e+003,8.448788e+001
1.984425e+003,8.449010e+001
1.986354e+003,8.448516e+001
1.988282e+003,8.446958e+001
1.990210e+003,8.444187e+001
1.992139e+003,8.443714e+001
1.994068e+003,8.444717e+001
1.995996e+003,8.443892e+001
1.997924e+003,8.444395e+001
1.999853e+003,8.444562e+001
2.001781e+003,8.445618e+001
2.003710e+003,8.444244e+001
2.005638e+003,8.443041e+001
2.007567e+003,8.441663e+001
2.009495e+003,8.442132e+001
2.011424e+003,8.442326e+001
2.013352e+003,8.443880e+001
2.015281e+003,8.442697e+001
2.017209e+003,8.442754e+001
2.019138e+003,8.441527e+001
2.021066e+003,8.441277e+001
2.022995e+003,8.440677e+001
2.024923e+003,8.440145e+001
2.026852e+003,8.440392e+001
2.028780e+003,8.441684e+001
2.030709e+003,8.440528e+001
2.032637e+003,8.440288e+001
2.034566e+003,8.438708e+001
2.036494e+003,8.436487e+001
2.038423e+003,8.436143e+001
2.040351e+003,8.438609e+001
2.042280e+003,8.438574e+001
2.044208e+003,8.435812e+001
2.046137e+003,8.433267e+001
2.048065e+003,8.433986e+001
2.049994e+003,8.433153e+001
2.051922e+003,8.432022e+001
2.053851e+003,8.431337e+001
2.055779e+003,8.432234e+001
2.057708e+003,8.430291e+001
2.059636e+003,8.428362e+001
2.061565e+003,8.426820e+001
2.063493e+003,8.425668e+001
2.065422e+003,8.424765e+001
2.067350e+003,8.422762e+001
2.069279e+003,8.419258e+001
2.071207e+003,8.419927e+001
2.073136e+003,8.419427e+001
2.075064e+003,8.417415e+001
2.076993e+003,8.413935e+001
2.078921e+003,8.412438e+001
2.080850e+003,8.411080e+001
2.082778e+003,8.409625e+001
2.084707e+003,8.408820e+001
2.086635e+003,8.409307e+001
2.088564e+003,8.405934e+001
2.090492e+003,8.403866e+001
2.092421e+003,8.401764e+001
2.094349e+003,8.399675e+001
2.096278e+003,8.397924e+001
2.098206e+003,8.398727e+001
2.100135e+003,8.398891e+001
2.102063e+003,8.397367e+001
2.103992e+003,8.396518e+001
2.105920e+003,8.397119e+001
2.107849e+003,8.396336e+001
2.109777e+003,8.396003e+001
2.111706e+003,8.395453e+001
2.113634e+003,8.393711e+001
2.115563e+003,8.392094e+001
2.117491e+003,8.393726e+001
2.119420e+003,8.393472e+001
2.121348e+003,8.391816e+001
2.123277e+003,8.388927e+001
2.125205e+003,8.388639e+001
2.127134e+003,8.387933e+001
2.129062e+003,8.387778e+001
2.130991e+003,8.387112e+001
2.132919e+003,8.386592e+001
2.134848e+003,8.384315e+001
2.136776e+003,8.384183e+001
2.138705e+003,8.382751e+001
2.140633e+003,8.381382e+001
2.142562e+003,8.381600e+001
2.144490e+003,8.383769e+001
2.146419e+003,8.383549e+001
2.148347e+003,8.382841e+001
2.150276e+003,8.381886e+001
2.152204e+003,8.380541e+001
2.154133e+003,8.377565e+001
2.156061e+003,8.378757e+001
2.157990e+003,8.380389e+001
2.159918e+003,8.380364e+001
2.161847e+003,8.379963e+001
2.163775e+003,8.379790e+001
2.165704e+003,8.378777e+001
2.167632e+003,8.378142e+001
2.169561e+003,8.376502e+001
2.171489e+003,8.376308e+001
2.173418e+003,8.375562e+001
2.175346e+003,8.377726e+001
2.177275e+003,8.379565e+001
2.179203e+003,8.379041e+001
2.181132e+003,8.375417e+001
2.183060e+003,8.374825e+001
2.184989e+003,8.375489e+001
2.186917e+003,8.376927e+001
2.188846e+003,8.378239e+001
2.190774e+003,8.378085e+001
2.192703e+003,8.376160e+001
2.194631e+003,8.377149e+001
2.196560e+003,8.379490e+001
2.198488e+003,8.379389e+001
2.200417e+003,8.379044e+001
2.202345e+003,8.380470e+001
2.204274e+003,8.380490e+001
2.206202e+003,8.380537e+001
2.208131e+003,8.380585e+001
2.210059e+003,8.380132e+001
2.211988e+003,8.378129e+001
2.213916e+003,8.380449e+001
2.215845e+003,8.381090e+001
2.217773e+003,8.382103e+001
2.219702e+003,8.383453e+001
2.221630e+003,8.383934e+001
2.223559e+003,8.384102e+001
2.225487e+003,8.384473e+001
2.227416e+003,8.383942e+001
2.229344e+003,8.384000e+001
2.231273e+003,8.386432e+001
2.233201e+003,8.388450e+001
2.235130e+003,8.389510e+001
2.237058e+003,8.390131e+001
2.238987e+003,8.389670e+001
2.240915e+003,8.390083e+001
2.242844e+003,8.390697e+001
2.244772e+003,8.391195e+001
2.246701e+003,8.391690e+001
2.248629e+003,8.394395e+001
2.250558e+003,8.394859e+001
2.252486e+003,8.395913e+001
2.254415e+003,8.396634e+001
2.256343e+003,8.396307e+001
2.258272e+003,8.395956e+001
2.260200e+003,8.396877e+001
2.262129e+003,8.397792e+001
2.264057e+003,8.399369e+001
2.265986e+003,8.400130e+001
2.267914e+003,8.401339e+001
2.269843e+003,8.400474e+001
2.271771e+003,8.400980e+001
2.273700e+003,8.404014e+001
2.275628e+003,8.406676e+001
2.277557e+003,8.409145e+001
2.279485e+003,8.413387e+001
2.281414e+003,8.417635e+001
2.283342e+003,8.418176e+001
2.285271e+003,8.414208e+001
2.287199e+003,8.410799e+001
2.289128e+003,8.407465e+001
2.291056e+003,8.404110e+001
2.292985e+003,8.400049e+001
2.294913e+003,8.395480e+001
2.296842e+003,8.389749e+001
2.298770e+003,8.384657e+001
2.300699e+003,8.377504e+001
2.302627e+003,8.370531e+001
2.304556e+003,8.361484e+001
2.306484e+003,8.351707e+001
2.308413e+003,8.339727e+001
2.310341e+003,8.324603e+001
2.312270e+003,8.313197e+001
2.314198e+003,8.305546e+001
2.316127e+003,8.293081e+001
2.318055e+003,8.273277e+001
2.319984e+003,8.250368e+001
2.321912e+003,8.231625e+001
2.323841e+003,8.220368e+001
2.325769e+003,8.206997e+001
2.327698e+003,8.180889e+001
2.329626e+003,8.158398e+001
2.331555e+003,8.155330e+001
2.333483e+003,8.159497e+001
2.335412e+003,8.152709e+001
2.337340e+003,8.147441e+001
2.339269e+003,8.146559e+001
2.341197e+003,8.137263e+001
2.343126e+003,8.137444e+001
2.345054e+003,8.171346e+001
2.346983e+003,8.231798e+001
2.348911e+003,8.245185e+001
2.350840e+003,8.200408e+001
2.352768e+003,8.143945e+001
2.354697e+003,8.092001e+001
2.356625e+003,8.049400e+001
2.358554e+003,8.025824e+001
2.360482e+003,8.019513e+001
2.362411e+003,8.031674e+001
2.364339e+003,8.062941e+001
2.366268e+003,8.101060e+001
2.368196e+003,8.149438e+001
2.370125e+003,8.203619e+001
2.372053e+003,8.257256e+001
2.373982e+003,8.303314e+001
2.375910e+003,8.345248e+001
2.377839e+003,8.383302e+001
2.379767e+003,8.418930e+001
2.381696e+003,8.449216e+001
2.383624e+003,8.474747e+001
2.385553e+003,8.490977e+001
2.387481e+003,8.498891e+001
2.389410e+003,8.502429e+001
2.391338e+003,8.506566e+001
2.393267e+003,8.510118e+001
2.395195e+003,8.512802e+001
2.397124e+003,8.514340e+001
2.399052e+003,8.514413e+001
2.400981e+003,8.514842e+001
2.402909e+003,8.516562e+001
2.404838e+003,8.517184e+001
2.406766e+003,8.517226e+001
2.408695e+003,8.519044e+001
2.410623e+003,8.522845e+001
2.412552e+003,8.523348e+001
2.414480e+003,8.524413e+001
2.416409e+003,8.525050e+001
2.418337e+003,8.524609e+001
2.420266e+003,8.525969e+001
2.422194e+003,8.529161e+001
2.424123e+003,8.530486e+001
2.426051e+003,8.530427e+001
2.427980e+003,8.531876e+001
2.429908e+003,8.534261e+001
2.431837e+003,8.534626e+001
2.433765e+003,8.535239e+001
2.435694e+003,8.537091e+001
2.437622e+003,8.538571e+001
2.439551e+003,8.539964e+001
2.441479e+003,8.542516e+001
2.443408e+003,8.542809e+001
2.445336e+003,8.543010e+001
2.447265e+003,8.543051e+001
2.449193e+003,8.544204e+001
2.451122e+003,8.545685e+001
2.453050e+003,8.547338e+001
2.454979e+003,8.549989e+001
2.456907e+003,8.551155e+001
2.458836e+003,8.551164e+001
2.460764e+003,8.553111e+001
2.462693e+003,8.553819e+001
2.464621e+003,8.552728e+001
2.466550e+003,8.552621e+001
2.468478e+003,8.554485e+001
2.470406e+003,8.555089e+001
2.472335e+003,8.557483e+001
2.474264e+003,8.559390e+001
2.476192e+003,8.560324e+001
2.478121e+003,8.559805e+001
2.480049e+003,8.560684e+001
2.481978e+003,8.562714e+001
2.483906e+003,8.564918e+001
2.485834e+003,8.566116e+001
2.487763e+003,8.566610e+001
2.489692e+003,8.567093e+001
2.491620e+003,8.567996e+001
2.493549e+003,8.568793e+001
2.495477e+003,8.573753e+001
2.497406e+003,8.575224e+001
2.499334e+003,8.573602e+001
2.501262e+003,8.574757e+001
2.503191e+003,8.576188e+001
2.505120e+003,8.576765e+001
2.507048e+003,8.577693e+001
2.508977e+003,8.578174e+001
2.510905e+003,8.578449e+001
2.512833e+003,8.579433e+001
2.514762e+003,8.582915e+001
2.516690e+003,8.582854e+001
2.518619e+003,8.582858e+001
2.520548e+003,8.583206e+001
2.522476e+003,8.583804e+001
2.524405e+003,8.585802e+001
2.526333e+003,8.589365e+001
2.528261e+003,8.590737e+001
2.530190e+003,8.589370e+001
2.532119e+003,8.589417e+001
2.534047e+003,8.590331e+001
2.535976e+003,8.591147e+001
2.537904e+003,8.591866e+001
2.539833e+003,8.592020e+001
2.541761e+003,8.591901e+001
2.543689e+003,8.592274e+001
2.545618e+003,8.592175e+001
2.547547e+003,8.593130e+001
2.549475e+003,8.594229e+001
2.551404e+003,8.594920e+001
2.553332e+003,8.597223e+001
2.555260e+003,8.596471e+001
2.557189e+003,8.596078e+001
2.559117e+003,8.597546e+001
2.561046e+003,8.599008e+001
2.562975e+003,8.598970e+001
2.564903e+003,8.598503e+001
2.566832e+003,8.598109e+001
2.568760e+003,8.599768e+001
2.570688e+003,8.600100e+001
2.572617e+003,8.602229e+001
2.574545e+003,8.602956e+001
2.576474e+003,8.600327e+001
2.578403e+003,8.598898e+001
2.580331e+003,8.599657e+001
2.582260e+003,8.600158e+001
2.584188e+003,8.600444e+001
2.586116e+003,8.601437e+001
2.588045e+003,8.603268e+001
2.589973e+003,8.602763e+001
2.591902e+003,8.603085e+001
2.593831e+003,8.602955e+001
2.595759e+003,8.600815e+001
2.597688e+003,8.600620e+001
2.599616e+003,8.603376e+001
2.601544e+003,8.603513e+001
2.603473e+003,8.602663e+001
2.605401e+003,8.602301e+001
2.607330e+003,8.602292e+001
2.609259e+003,8.601488e+001
2.611187e+003,8.601875e+001
2.613115e+003,8.602493e+001
2.615044e+003,8.602609e+001
2.616972e+003,8.603281e+001
2.618901e+003,8.604029e+001
2.620830e+003,8.604032e+001
2.622758e+003,8.603808e+001
2.624687e+003,8.602747e+001
2.626615e+003,8.600860e+001
2.628543e+003,8.600227e+001
2.630472e+003,8.602813e+001
2.632400e+003,8.603372e+001
2.634329e+003,8.602320e+001
2.636258e+003,8.601437e+001
2.638186e+003,8.602045e+001
2.640115e+003,8.601871e+001
2.642043e+003,8.602404e+001
2.643971e+003,8.603947e+001
2.645900e+003,8.603055e+001
2.647828e+003,8.600638e+001
2.649757e+003,8.599180e+001
2.651686e+003,8.599670e+001
2.653614e+003,8.601284e+001
2.655542e+003,8.600222e+001
2.657471e+003,8.599287e+001
2.659399e+003,8.598714e+001
2.661328e+003,8.600024e+001
2.663256e+003,8.600883e+001
2.665185e+003,8.599479e+001
2.667114e+003,8.597208e+001
2.669042e+003,8.597212e+001
2.670970e+003,8.596994e+001
2.672899e+003,8.597313e+001
2.674827e+003,8.597525e+001
2.676756e+003,8.595092e+001
2.678684e+003,8.593085e+001
2.680613e+003,8.593627e+001
2.682542e+003,8.595120e+001
2.684470e+003,8.595579e+001
2.686398e+003,8.594699e+001
2.688327e+003,8.595429e+001
2.690255e+003,8.594949e+001
2.692184e+003,8.593640e+001
2.694112e+003,8.593347e+001
2.696041e+003,8.592699e+001
2.697969e+003,8.591486e+001
2.699898e+003,8.590335e+001
2.701826e+003,8.591621e+001
2.703755e+003,8.592313e+001
2.705683e+003,8.590120e+001
2.707612e+003,8.588261e+001
2.709540e+003,8.586860e+001
2.711469e+003,8.584925e+001
2.713397e+003,8.583517e+001
2.715326e+003,8.583508e+001
2.717254e+003,8.583562e+001
2.719183e+003,8.584385e+001
2.721111e+003,8.584842e+001
2.723040e+003,8.582542e+001
2.724969e+003,8.577094e+001
2.726897e+003,8.576710e+001
2.728825e+003,8.579546e+001
2.730754e+003,8.578735e+001
2.732682e+003,8.576913e+001
2.734611e+003,8.575060e+001
2.736539e+003,8.573338e+001
2.738468e+003,8.573071e+001
2.740396e+003,8.571107e+001
2.742325e+003,8.569004e+001
2.744253e+003,8.567001e+001
2.746182e+003,8.565382e+001
2.748110e+003,8.566166e+001
2.750039e+003,8.567455e+001
2.751967e+003,8.566793e+001
2.753896e+003,8.563036e+001
2.755824e+003,8.558426e+001
2.757753e+003,8.557600e+001
2.759681e+003,8.559580e+001
2.761610e+003,8.557448e+001
2.763538e+003,8.553957e+001
2.765467e+003,8.552854e+001
2.767395e+003,8.550596e+001
2.769324e+003,8.547768e+001
2.771252e+003,8.544222e+001
2.773181e+003,8.541057e+001
2.775109e+003,8.538449e+001
2.777038e+003,8.538550e+001
2.778966e+003,8.539085e+001
2.780895e+003,8.537674e+001
2.782823e+003,8.536617e+001
2.784752e+003,8.533700e+001
2.786680e+003,8.529266e+001
2.788609e+003,8.525159e+001
2.790537e+003,8.521783e+001
2.792466e+003,8.521958e+001
2.794394e+003,8.519651e+001
2.796323e+003,8.513125e+001
2.798251e+003,8.509795e+001
2.800180e+003,8.511749e+001
2.802108e+003,8.509974e+001
2.804037e+003,8.506833e+001
2.805965e+003,8.505765e+001
2.807894e+003,8.502050e+001
2.809822e+003,8.495792e+001
2.811751e+003,8.492274e+001
2.813679e+003,8.491380e+001
2.815608e+003,8.486664e+001
2.817536e+003,8.480403e+001
2.819465e+003,8.478128e+001
2.821393e+003,8.475632e+001
2.823322e+003,8.471501e+001
2.825250e+003,8.467775e+001
2.827179e+003,8.466103e+001
2.829107e+003,8.463195e+001
2.831036e+003,8.455756e+001
2.832964e+003,8.448716e+001
2.834893e+003,8.442659e+001
2.836821e+003,8.436525e+001
2.838750e+003,8.433077e+001
2.840678e+003,8.430601e+001
2.842607e+003,8.425153e+001
2.844535e+003,8.415679e+001
2.846464e+003,8.404184e+001
2.848392e+003,8.396082e+001
2.850321e+003,8.391224e+001
2.852249e+003,8.386135e+001
2.854178e+003,8.382085e+001
2.856106e+003,8.379033e+001
2.858035e+003,8.375917e+001
2.859963e+003,8.371501e+001
2.861892e+003,8.367535e+001
2.863820e+003,8.361716e+001
2.865749e+003,8.357599e+001
2.867677e+003,8.353490e+001
2.869606e+003,8.346104e+001
2.871534e+003,8.338098e+001
2.873463e+003,8.332872e+001
2.875391e+003,8.328351e+001
2.877320e+003,8.325014e+001
2.879248e+003,8.318433e+001
2.881177e+003,8.311762e+001
2.883105e+003,8.306676e+001
2.885034e+003,8.301051e+001
2.886962e+003,8.292373e+001
2.888891e+003,8.282516e+001
2.890819e+003,8.275962e+001
2.892748e+003,8.269216e+001
2.894676e+003,8.259886e+001
2.896605e+003,8.252448e+001
2.898533e+003,8.244989e+001
2.900462e+003,8.236870e+001
2.902390e+003,8.226622e+001
2.904319e+003,8.216296e+001
2.906247e+003,8.208862e+001
2.908176e+003,8.199915e+001
2.910104e+003,8.188210e+001
2.912033e+003,8.173880e+001
2.913961e+003,8.157128e+001
2.915890e+003,8.143518e+001
2.917818e+003,8.132777e+001
2.919747e+003,8.122437e+001
2.921675e+003,8.114328e+001
2.923604e+003,8.106362e+001
2.925532e+003,8.097138e+001
2.927461e+003,8.086941e+001
2.929389e+003,8.079967e+001
2.931318e+003,8.073766e+001
2.933246e+003,8.066320e+001
2.935175e+003,8.060650e+001
2.937103e+003,8.051101e+001
2.939032e+003,8.041612e+001
2.940960e+003,8.032345e+001
2.942889e+003,8.019303e+001
2.944817e+003,8.008278e+001
2.946746e+003,7.999866e+001
2.948674e+003,7.993317e+001
2.950603e+003,7.982855e+001
2.952531e+003,7.968405e+001
2.954460e+003,7.957771e+001
2.956388e+003,7.945700e+001
2.958317e+003,7.932513e+001
2.960245e+003,7.919904e+001
2.962174e+003,7.906855e+001
2.964102e+003,7.895992e+001
2.966031e+003,7.884425e+001
2.967959e+003,7.873067e+001
2.969888e+003,7.859663e+001
2.971816e+003,7.845205e+001
2.973745e+003,7.830128e+001
2.975673e+003,7.817776e+001
2.977602e+003,7.804595e+001
2.979530e+003,7.788589e+001
2.981459e+003,7.774090e+001
2.983387e+003,7.762435e+001
2.985316e+003,7.750649e+001
2.987244e+003,7.734798e+001
2.989173e+003,7.714832e+001
2.991101e+003,7.693736e+001
2.993030e+003,7.677593e+001
2.994958e+003,7.663993e+001
2.996887e+003,7.647839e+001
2.998815e+003,7.631731e+001
3.000744e+003,7.618699e+001
3.002672e+003,7.601818e+001
3.004601e+003,7.581002e+001
3.006529e+003,7.560379e+001
3.008458e+003,7.541010e+001
3.010386e+003,7.521233e+001
3.012315e+003,7.503871e+001
3.014243e+003,7.487667e+001
3.016172e+003,7.468995e+001
3.018100e+003,7.450437e+001
3.020029e+003,7.432703e+001
3.021957e+003,7.408560e+001
3.023886e+003,7.385838e+001
3.025814e+003,7.370548e+001
3.027743e+003,7.355199e+001
3.029671e+003,7.333291e+001
3.031600e+003,7.307726e+001
3.033528e+003,7.284973e+001
3.035457e+003,7.264963e+001
3.037385e+003,7.243961e+001
3.039314e+003,7.220965e+001
3.041242e+003,7.198278e+001
3.043171e+003,7.176672e+001
3.045099e+003,7.154754e+001
3.047028e+003,7.134549e+001
3.048956e+003,7.113480e+001
3.050885e+003,7.088114e+001
3.052813e+003,7.067793e+001
3.054742e+003,7.043387e+001
3.056670e+003,7.020881e+001
3.058599e+003,7.000990e+001
3.060527e+003,6.976189e+001
3.062456e+003,6.946803e+001
3.064384e+003,6.921661e+001
3.066313e+003,6.897596e+001
3.068241e+003,6.875665e+001
3.070170e+003,6.854279e+001
3.072098e+003,6.830643e+001
3.074027e+003,6.801573e+001
3.075955e+003,6.776595e+001
3.077884e+003,6.752930e+001
3.079812e+003,6.725263e+001
3.081741e+003,6.694501e+001
3.083669e+003,6.671292e+001
3.085598e+003,6.650648e+001
3.087526e+003,6.626038e+001
3.089455e+003,6.598096e+001
3.091383e+003,6.575225e+001
3.093312e+003,6.550264e+001
3.095240e+003,6.523034e+001
3.097169e+003,6.498328e+001
3.099097e+003,6.472119e+001
3.101026e+003,6.445371e+001
3.102954e+003,6.418972e+001
3.104883e+003,6.393282e+001
3.106811e+003,6.364204e+001
3.108740e+003,6.336616e+001
3.110668e+003,6.311839e+001
3.112597e+003,6.282992e+001
3.114525e+003,6.251812e+001
3.116454e+003,6.226837e+001
3.118382e+003,6.202650e+001
3.120311e+003,6.170028e+001
3.122239e+003,6.144157e+001
3.124167e+003,6.123778e+001
3.126096e+003,6.098606e+001
3.128025e+003,6.069407e+001
3.129953e+003,6.045101e+001
3.131882e+003,6.018853e+001
3.133810e+003,5.989840e+001
3.135739e+003,5.959767e+001
3.137667e+003,5.931277e+001
3.139595e+003,5.905681e+001
3.141524e+003,5.881448e+001
3.143453e+003,5.856178e+001
3.145381e+003,5.829749e+001
3.147310e+003,5.801982e+001
3.149238e+003,5.774809e+001
3.151167e+003,5.743852e+001
3.153095e+003,5.710904e+001
3.155023e+003,5.688694e+001
3.156952e+003,5.669784e+001
3.158881e+003,5.642513e+001
3.160809e+003,5.618371e+001
3.162738e+003,5.594129e+001
3.164666e+003,5.567116e+001
3.166594e+003,5.539032e+001
3.168523e+003,5.512974e+001
3.170452e+003,5.487206e+001
3.172380e+003,5.464159e+001
3.174309e+003,5.437822e+001
3.176237e+003,5.411007e+001
3.178166e+003,5.385264e+001
3.180094e+003,5.359571e+001
3.182022e+003,5.330103e+001
3.183951e+003,5.303073e+001
3.185880e+003,5.281443e+001
3.187808e+003,5.259393e+001
3.189737e+003,5.234767e+001
3.191665e+003,5.209616e+001
3.193594e+003,5.185670e+001
3.195522e+003,5.165862e+001
3.197450e+003,5.144062e+001
3.199379e+003,5.115253e+001
3.201308e+003,5.089616e+001
3.203236e+003,5.065452e+001
3.205165e+003,5.043222e+001
3.207093e+003,5.022453e+001
3.209021e+003,4.998526e+001
3.210950e+003,4.978944e+001
3.212878e+003,4.956827e+001
3.214807e+003,4.932126e+001
3.216736e+003,4.909402e+001
3.218664e+003,4.887467e+001
3.220593e+003,4.868641e+001
3.222521e+003,4.853959e+001
3.224449e+003,4.835754e+001
3.226378e+003,4.813986e+001
3.228306e+003,4.793496e+001
3.230235e+003,4.775277e+001
3.232164e+003,4.760834e+001
3.234092e+003,4.743414e+001
3.236021e+003,4.720014e+001
3.237949e+003,4.699895e+001
3.239877e+003,4.685152e+001
3.241806e+003,4.671750e+001
3.243734e+003,4.656399e+001
3.245663e+003,4.640218e+001
3.247592e+003,4.625036e+001
3.249520e+003,4.612597e+001
3.251448e+003,4.601111e+001
3.253377e+003,4.582037e+001
3.255305e+003,4.559491e+001
3.257234e+003,4.547681e+001
3.259162e+003,4.536649e+001
3.261091e+003,4.526488e+001
3.263020e+003,4.512077e+001
3.264948e+003,4.495301e+001
3.266876e+003,4.484822e+001
3.268805e+003,4.476396e+001
3.270733e+003,4.468023e+001
3.272662e+003,4.454497e+001
3.274591e+003,4.433785e+001
3.276519e+003,4.423613e+001
3.278448e+003,4.413718e+001
3.280376e+003,4.408109e+001
3.282304e+003,4.403131e+001
3.284233e+003,4.386248e+001
3.286161e+003,4.367025e+001
3.288090e+003,4.354485e+001
3.290019e+003,4.337200e+001
3.291947e+003,4.327354e+001
3.293875e+003,4.321813e+001
3.295804e+003,4.315177e+001
3.297732e+003,4.309253e+001
3.299661e+003,4.296835e+001
3.301589e+003,4.275730e+001
3.303518e+003,4.266707e+001
3.305447e+003,4.261359e+001
3.307375e+003,4.253820e+001
3.309303e+003,4.242047e+001
3.311232e+003,4.225719e+001
3.313160e+003,4.214979e+001
3.315089e+003,4.201062e+001
3.317017e+003,4.181059e+001
3.318946e+003,4.175357e+001
3.320875e+003,4.171091e+001
3.322803e+003,4.153739e+001
3.324731e+003,4.135472e+001
3.326660e+003,4.128644e+001
3.328588e+003,4.117435e+001
3.330517e+003,4.105580e+001
3.332445e+003,4.098745e+001
3.334374e+003,4.085786e+001
3.336302e+003,4.063811e+001
3.338231e+003,4.051852e+001
3.340159e+003,4.049062e+001
3.342088e+003,4.031878e+001
3.344016e+003,4.018221e+001
3.345945e+003,4.009784e+001
3.347873e+003,3.996227e+001
3.349802e+003,3.981167e+001
3.351730e+003,3.968428e+001
3.353659e+003,3.962671e+001
3.355587e+003,3.946590e+001
3.357516e+003,3.928008e+001
3.359444e+003,3.912377e+001
3.361373e+003,3.900687e+001
3.363302e+003,3.888279e+001
3.365230e+003,3.872940e+001
3.367158e+003,3.860360e+001
3.369087e+003,3.863198e+001
3.371015e+003,3.853452e+001
3.372944e+003,3.840131e+001
3.374872e+003,3.830573e+001
3.376801e+003,3.819959e+001
3.378729e+003,3.808593e+001
3.380658e+003,3.802456e+001
3.382586e+003,3.792735e+001
3.384515e+003,3.780811e+001
3.386443e+003,3.760746e+001
3.388372e+003,3.749714e+001
3.390300e+003,3.753723e+001
3.392229e+003,3.753098e+001
3.394157e+003,3.741170e+001
3.396086e+003,3.733895e+001
3.398014e+003,3.721636e+001
3.399943e+003,3.719051e+001
3.401871e+003,3.718937e+001
3.403800e+003,3.703628e+001
3.405728e+003,3.690100e+001
3.407657e+003,3.691806e+001
3.409585e+003,3.686203e+001
3.411514e+003,3.685649e+001
3.413442e+003,3.686913e+001
3.415371e+003,3.686006e+001
3.417299e+003,3.671294e+001
3.419228e+003,3.653926e+001
3.421156e+003,3.661951e+001
3.423085e+003,3.665963e+001
3.425013e+003,3.664502e+001
3.426942e+003,3.666608e+001
3.428870e+003,3.663427e+001
3.430799e+003,3.658166e+001
3.432727e+003,3.652728e+001
3.434656e+003,3.653017e+001
3.436584e+003,3.657131e+001
3.438513e+003,3.668425e+001
3.440441e+003,3.674780e+001
3.442370e+003,3.683318e+001
3.444298e+003,3.678911e+001
3.446227e+003,3.677843e+001
3.448155e+003,3.689158e+001
3.450084e+003,3.697439e+001
3.452012e+003,3.694601e+001
3.453941e+003,3.692521e+001
3.455869e+003,3.690940e+001
3.457798e+003,3.689103e+001
3.459726e+003,3.683715e+001
3.461655e+003,3.686180e+001
3.463583e+003,3.700064e+001
3.465512e+003,3.711351e+001
3.467440e+003,3.715818e+001
3.469369e+003,3.716874e+001
3.471297e+003,3.716800e+001
3.473226e+003,3.710988e+001
3.475154e+003,3.718511e+001
3.477083e+003,3.721204e+001
3.479011e+003,3.724093e+001
3.480940e+003,3.731593e+001
3.482868e+003,3.741364e+001
3.484797e+003,3.744051e+001
3.486725e+003,3.753029e+001
3.488654e+003,3.770479e+001
3.490582e+003,3.771993e+001
3.492511e+003,3.772420e+001
3.494439e+003,3.770116e+001
3.496368e+003,3.773547e+001
3.498296e+003,3.779551e+001
3.500225e+003,3.777959e+001
3.502153e+003,3.789706e+001
3.504082e+003,3.810526e+001
3.506010e+003,3.825315e+001
3.507939e+003,3.825464e+001
3.509867e+003,3.832607e+001
3.511796e+003,3.836227e+001
3.513724e+003,3.838218e+001
3.515653e+003,3.842830e+001
3.517581e+003,3.857079e+001
3.519510e+003,3.873051e+001
3.521438e+003,3.867998e+001
3.523367e+003,3.860208e+001
3.525295e+003,3.878936e+001
3.527224e+003,3.894770e+001
3.529152e+003,3.902741e+001
3.531081e+003,3.900714e+001
3.533009e+003,3.897772e+001
3.534938e+003,3.904713e+001
3.536866e+003,3.906471e+001
3.538795e+003,3.919853e+001
3.540723e+003,3.941487e+001
3.542652e+003,3.947649e+001
3.544580e+003,3.948285e+001
3.546509e+003,3.974554e+001
3.548437e+003,3.992883e+001
3.550366e+003,3.987546e+001
3.552294e+003,3.994850e+001
3.554223e+003,4.003371e+001
3.556151e+003,4.012651e+001
3.558080e+003,4.025072e+001
3.560008e+003,4.035038e+001
3.561937e+003,4.036621e+001
3.563865e+003,4.034121e+001
3.565794e+003,4.040813e+001
3.567722e+003,4.089086e+001
3.569651e+003,4.124710e+001
3.571579e+003,4.133871e+001
3.573508e+003,4.134050e+001
3.575436e+003,4.157306e+001
3.577365e+003,4.186329e+001
3.579293e+003,4.202462e+001
3.581222e+003,4.207048e+001
3.583150e+003,4.213255e+001
3.585079e+003,4.230441e+001
3.587007e+003,4.264484e+001
3.588936e+003,4.287376e+001
3.590864e+003,4.308873e+001
3.592793e+003,4.329205e+001
3.594721e+003,4.363777e+001
3.596650e+003,4.389094e+001
3.598578e+003,4.408387e+001
3.600507e+003,4.429685e+001
3.602435e+003,4.450484e+001
3.604364e+003,4.475055e+001
3.606292e+003,4.507240e+001
3.608221e+003,4.538244e+001
3.610149e+003,4.570918e+001
3.612078e+003,4.593163e+001
3.614006e+003,4.624746e+001
3.615935e+003,4.651123e+001
3.617863e+003,4.679835e+001
3.619792e+003,4.718845e+001
3.621720e+003,4.749927e+001
3.623649e+003,4.771220e+001
3.625577e+003,4.797751e+001
3.627506e+003,4.815349e+001
3.629434e+003,4.868707e+001
3.631363e+003,4.907219e+001
3.633291e+003,4.939488e+001
3.635220e+003,4.965535e+001
3.637148e+003,4.996178e+001
3.639077e+003,5.037741e+001
3.641005e+003,5.078671e+001
3.642934e+003,5.110911e+001
3.644862e+003,5.124945e+001
3.646791e+003,5.140599e+001
3.648719e+003,5.172916e+001
3.650648e+003,5.225637e+001
3.652576e+003,5.273964e+001
3.654505e+003,5.298268e+001
3.656433e+003,5.332939e+001
3.658362e+003,5.361580e+001
3.660290e+003,5.388039e+001
3.662219e+003,5.413906e+001
3.664147e+003,5.446881e+001
3.666076e+003,5.471352e+001
3.668004e+003,5.488532e+001
3.669933e+003,5.533073e+001
3.671861e+003,5.557401e+001
3.673790e+003,5.560969e+001
3.675718e+003,5.619599e+001
3.677647e+003,5.644732e+001
3.679575e+003,5.664629e+001
3.681504e+003,5.687272e+001
3.683432e+003,5.710550e+001
3.685361e+003,5.724141e+001
3.687289e+003,5.742751e+001
3.689218e+003,5.765401e+001
3.691146e+003,5.788766e+001
3.693075e+003,5.813736e+001
3.695003e+003,5.839479e+001
3.696932e+003,5.859510e+001
3.698860e+003,5.873124e+001
3.700789e+003,5.889117e+001
3.702717e+003,5.901057e+001
3.704646e+003,5.913145e+001
3.706574e+003,5.927121e+001
3.708503e+003,5.939265e+001
3.710431e+003,5.964735e+001
3.712360e+003,5.994778e+001
3.714288e+003,6.000644e+001
3.716217e+003,5.998832e+001
3.718145e+003,6.008425e+001
3.720074e+003,6.019371e+001
3.722002e+003,6.031303e+001
3.723931e+003,6.030574e+001
3.725859e+003,6.033980e+001
3.727788e+003,6.037242e+001
3.729716e+003,6.042183e+001
3.731645e+003,6.052507e+001
3.733573e+003,6.045052e+001
3.735502e+003,6.036751e+001
3.737430e+003,6.067424e+001
3.739359e+003,6.090580e+001
3.741287e+003,6.107817e+001
3.743216e+003,6.121911e+001
3.745144e+003,6.157150e+001
3.747073e+003,6.167403e+001
3.749001e+003,6.190329e+001
3.750930e+003,6.212334e+001
3.752858e+003,6.205135e+001
3.754787e+003,6.207394e+001
3.756715e+003,6.219106e+001
3.758644e+003,6.222152e+001
3.760572e+003,6.236006e+001
3.762500e+003,6.243889e+001
3.764429e+003,6.245326e+001
3.766358e+003,6.250714e+001
3.768286e+003,6.255230e+001
3.770215e+003,6.267379e+001
3.772143e+003,6.275693e+001
3.774072e+003,6.283507e+001
3.776000e+003,6.290114e+001
3.777928e+003,6.282849e+001
3.779857e+003,6.290087e+001
3.781786e+003,6.297807e+001
3.783714e+003,6.304700e+001
3.785643e+003,6.314379e+001
3.787571e+003,6.324775e+001
3.789500e+003,6.323584e+001
3.791428e+003,6.323462e+001
3.793356e+003,6.326823e+001
3.795285e+003,6.333054e+001
3.797214e+003,6.334472e+001
3.799142e+003,6.337369e+001
3.801071e+003,6.349322e+001
3.802999e+003,6.360191e+001
3.804927e+003,6.363830e+001
3.806856e+003,6.374459e+001
3.808785e+003,6.370365e+001
3.810713e+003,6.368916e+001
3.812642e+003,6.372592e+001
3.814570e+003,6.380455e+001
3.816499e+003,6.383522e+001
3.818427e+003,6.395464e+001
3.820355e+003,6.409336e+001
3.822284e+003,6.399404e+001
3.824213e+003,6.389602e+001
3.826141e+003,6.403974e+001
3.828070e+003,6.409149e+001
3.829998e+003,6.406957e+001
3.831927e+003,6.407614e+001
3.833855e+003,6.411974e+001
3.835783e+003,6.409418e+001
3.837712e+003,6.404857e+001
3.839641e+003,6.405103e+001
3.841569e+003,6.416975e+001
3.843498e+003,6.419265e+001
3.845426e+003,6.422726e+001
3.847354e+003,6.425785e+001
3.849283e+003,6.428389e+001
3.851211e+003,6.426912e+001
3.853140e+003,6.442738e+001
3.855069e+003,6.437772e+001
3.856997e+003,6.433607e+001
3.858926e+003,6.436243e+001
3.860854e+003,6.442283e+001
3.862782e+003,6.447726e+001
3.864711e+003,6.453338e+001
3.866639e+003,6.460365e+001
3.868568e+003,6.468504e+001
3.870497e+003,6.462408e+001
3.872425e+003,6.461762e+001
3.874354e+003,6.465784e+001
3.876282e+003,6.473832e+001
3.878210e+003,6.476305e+001
3.880139e+003,6.471227e+001
3.882067e+003,6.471651e+001
3.883996e+003,6.473607e+001
3.885925e+003,6.480853e+001
3.887853e+003,6.486594e+001
3.889781e+003,6.486597e+001
3.891710e+003,6.491651e+001
3.893638e+003,6.495918e+001
3.895567e+003,6.493003e+001
3.897495e+003,6.488869e+001
3.899424e+003,6.488923e+001
3.901353e+003,6.489182e+001
3.903281e+003,6.496821e+001
3.905209e+003,6.495290e+001
3.907138e+003,6.501289e+001
3.909066e+003,6.506590e+001
3.910995e+003,6.508214e+001
3.912924e+003,6.508651e+001
3.914852e+003,6.506432e+001
3.916781e+003,6.503773e+001
3.918709e+003,6.512301e+001
3.920637e+003,6.516643e+001
3.922566e+003,6.519225e+001
3.924494e+003,6.527179e+001
3.926423e+003,6.528244e+001
3.928352e+003,6.524623e+001
3.930280e+003,6.517111e+001
3.932208e+003,6.515462e+001
3.934137e+003,6.524792e+001
3.936065e+003,6.523242e+001
3.937994e+003,6.521687e+001
3.939922e+003,6.524723e+001
3.941851e+003,6.532830e+001
3.943780e+003,6.534469e+001
3.945708e+003,6.532635e+001
3.947636e+003,6.534473e+001
3.949565e+003,6.539014e+001
3.951493e+003,6.531409e+001
3.953422e+003,6.531590e+001
3.955350e+003,6.534764e+001
3.957279e+003,6.532317e+001
3.959208e+003,6.531332e+001
3.961136e+003,6.544721e+001
3.963064e+003,6.545451e+001
3.964993e+003,6.539142e+001
3.966921e+003,6.541374e+001
3.968850e+003,6.544014e+001
3.970778e+003,6.548598e+001
3.972707e+003,6.547290e+001
3.974635e+003,6.542254e+001
3.976564e+003,6.546391e+001
3.978492e+003,6.550298e+001
3.980421e+003,6.552805e+001
3.982349e+003,6.548584e+001
3.984278e+003,6.549459e+001
3.986206e+003,6.555093e+001
3.988135e+003,6.554119e+001
3.990063e+003,6.548069e+001
3.991992e+003,6.551952e+001
3.993920e+003,6.547790e+001
3.995849e+003,6.549168e+001
3.997777e+003,6.551821e+001
3.999706e+003,6.562339e+001
