3.991992e+002,6.758718e-001
4.011277e+002,6.969920e-001
4.030562e+002,7.143162e-001
4.049847e+002,7.381402e-001
4.069132e+002,7.629641e-001
4.088417e+002,7.890309e-001
4.107702e+002,8.126154e-001
4.126987e+002,8.343104e-001
4.146272e+002,8.511231e-001
4.165557e+002,8.606969e-001
4.184842e+002,8.831723e-001
4.204127e+002,9.221609e-001
4.223412e+002,9.251162e-001
4.242697e+002,9.215114e-001
4.261982e+002,9.127563e-001
4.281267e+002,9.003659e-001
4.300552e+002,8.805067e-001
4.319837e+002,8.645901e-001
4.339122e+002,8.553883e-001
4.358407e+002,8.554685e-001
4.377692e+002,8.605508e-001
4.396977e+002,8.636135e-001
4.416262e+002,8.729833e-001
4.435547e+002,8.874623e-001
4.454832e+002,8.944737e-001
4.474117e+002,8.959115e-001
4.493401e+002,8.912139e-001
4.512686e+002,8.995275e-001
4.531971e+002,9.131127e-001
4.551256e+002,9.361678e-001
4.570541e+002,9.636536e-001
4.589826e+002,9.924976e-001
4.609111e+002,1.000496e+000
4.628396e+002,1.006512e+000
4.647681e+002,1.008877e+000
4.666966e+002,1.005262e+000
4.686251e+002,9.868321e-001
4.705536e+002,9.686663e-001
4.724821e+002,9.380351e-001
4.744106e+002,9.033572e-001
4.763391e+002,8.718233e-001
4.782676e+002,8.416483e-001
4.801961e+002,8.127609e-001
4.821246e+002,7.856013e-001
4.840531e+002,7.579111e-001
4.859816e+002,7.289843e-001
4.879101e+002,7.012299e-001
4.898386e+002,6.733297e-001
4.917671e+002,6.392599e-001
4.936956e+002,6.045588e-001
4.956241e+002,5.727953e-001
4.975526e+002,5.445787e-001
4.994811e+002,5.208494e-001
5.014096e+002,5.028853e-001
5.033381e+002,4.899724e-001
5.052666e+002,4.811947e-001
5.071951e+002,4.747612e-001
5.091236e+002,4.687636e-001
5.110521e+002,4.633693e-001
5.129806e+002,4.572030e-001
5.149091e+002,4.511716e-001
5.168376e+002,4.444399e-001
5.187661e+002,4.366482e-001
5.206946e+002,4.290449e-001
5.226231e+002,4.218228e-001
5.245516e+002,4.142401e-001
5.264801e+002,4.054513e-001
5.284086e+002,3.972689e-001
5.303371e+002,3.910165e-001
5.322656e+002,3.858676e-001
5.341941e+002,3.806129e-001
5.361226e+002,3.754815e-001
5.380511e+002,3.719912e-001
5.399796e+002,3.700796e-001
5.419081e+002,3.706801e-001
5.438365e+002,3.750774e-001
5.457651e+002,3.852341e-001
5.476936e+002,4.014417e-001
5.496221e+002,4.238964e-001
5.515506e+002,4.528470e-001
5.534791e+002,4.853006e-001
5.554076e+002,5.161417e-001
5.573361e+002,5.375389e-001
5.592646e+002,5.433177e-001
5.611931e+002,5.336505e-001
5.631216e+002,5.116781e-001
5.650500e+002,4.833483e-001
5.669786e+002,4.544432e-001
5.689070e+002,4.274024e-001
5.708356e+002,4.030429e-001
5.727640e+002,3.839120e-001
5.746926e+002,3.686862e-001
5.766210e+002,3.555139e-001
5.785496e+002,3.456697e-001
5.804780e+002,3.393483e-001
5.824066e+002,3.354972e-001
5.843350e+002,3.352638e-001
5.862635e+002,3.384665e-001
5.881920e+002,3.466390e-001
5.901205e+002,3.607247e-001
5.920490e+002,3.847850e-001
5.939775e+002,4.152963e-001
5.959060e+002,4.470476e-001
5.978345e+002,4.707945e-001
5.997631e+002,4.786068e-001
6.016915e+002,4.683022e-001
6.036201e+002,4.477037e-001
6.055485e+002,4.236559e-001
6.074771e+002,4.028827e-001
6.094055e+002,3.868379e-001
6.113340e+002,3.775647e-001
6.132625e+002,3.737419e-001
6.151910e+002,3.756555e-001
6.171195e+002,3.830780e-001
6.190480e+002,3.943886e-001
6.209765e+002,4.058387e-001
6.229050e+002,4.133486e-001
6.248335e+002,4.096337e-001
6.267620e+002,3.958803e-001
6.286905e+002,3.788316e-001
6.306190e+002,3.653501e-001
6.325475e+002,3.569774e-001
6.344760e+002,3.543816e-001
6.364045e+002,3.561060e-001
6.383330e+002,3.622959e-001
6.402615e+002,3.719512e-001
6.421900e+002,3.848479e-001
6.441185e+002,3.973526e-001
6.460470e+002,4.104424e-001
6.479755e+002,4.239635e-001
6.499040e+002,4.409514e-001
6.518325e+002,4.602915e-001
6.537610e+002,4.845900e-001
6.556895e+002,5.119137e-001
6.576180e+002,5.437071e-001
6.595465e+002,5.762350e-001
6.614750e+002,6.064084e-001
6.634035e+002,6.302755e-001
6.653320e+002,6.471440e-001
6.672605e+002,6.626260e-001
6.691890e+002,6.807244e-001
6.711175e+002,6.843929e-001
6.730460e+002,6.898226e-001
6.749745e+002,6.936468e-001
6.769030e+002,6.957637e-001
6.788315e+002,6.968327e-001
6.807599e+002,7.013159e-001
6.826885e+002,7.084923e-001
6.846169e+002,7.168943e-001
6.865455e+002,7.208718e-001
6.884739e+002,7.203909e-001
6.904025e+002,7.148242e-001
6.923309e+002,7.077644e-001
6.942595e+002,7.018804e-001
6.961880e+002,6.978660e-001
6.981165e+002,6.902297e-001
7.000450e+002,6.751783e-001
7.019734e+002,6.516782e-001
7.039020e+002,6.226754e-001
7.058304e+002,5.923389e-001
7.077590e+002,5.660503e-001
7.096874e+002,5.464606e-001
7.116160e+002,5.341763e-001
7.135444e+002,5.282513e-001
7.154730e+002,5.251740e-001
7.174014e+002,5.201477e-001
7.193300e+002,5.096508e-001
7.212584e+002,4.930023e-001
7.231870e+002,4.742356e-001
7.251154e+002,4.567862e-001
7.270439e+002,4.407361e-001
7.289724e+002,4.262908e-001
7.309009e+002,4.130422e-001
7.328294e+002,4.006976e-001
7.347579e+002,3.890398e-001
7.366864e+002,3.780206e-001
7.386149e+002,3.675251e-001
7.405434e+002,3.582299e-001
7.424719e+002,3.499206e-001
7.444004e+002,3.426896e-001
7.463289e+002,3.360226e-001
7.482574e+002,3.299785e-001
7.501859e+002,3.239213e-001
7.521144e+002,3.182054e-001
7.540429e+002,3.127472e-001
7.559714e+002,3.081717e-001
7.578999e+002,3.041506e-001
7.598284e+002,3.011143e-001
7.617569e+002,2.982055e-001
7.636854e+002,2.950627e-001
7.656139e+002,2.915933e-001
7.675424e+002,2.882843e-001
7.694709e+002,2.848578e-001
7.713994e+002,2.822203e-001
7.733279e+002,2.803128e-001
7.752564e+002,2.796118e-001
7.771849e+002,2.796793e-001
7.791134e+002,2.807985e-001
7.810419e+002,2.820538e-001
7.829704e+002,2.834945e-001
7.848989e+002,2.849291e-001
7.868274e+002,2.868601e-001
7.887559e+002,2.893604e-001
7.906844e+002,2.930693e-001
7.926129e+002,2.974116e-001
7.945414e+002,3.025790e-001
7.964699e+002,3.081220e-001
7.983984e+002,3.140226e-001
8.003269e+002,3.197285e-001
8.022554e+002,3.260739e-001
8.041839e+002,3.329352e-001
8.061124e+002,3.405072e-001
8.080409e+002,3.485407e-001
8.099694e+002,3.568990e-001
8.118979e+002,3.648077e-001
8.138264e+002,3.723072e-001
8.157549e+002,3.788204e-001
8.176833e+002,3.850271e-001
8.196119e+002,3.913165e-001
8.215403e+002,3.978309e-001
8.234689e+002,4.042645e-001
8.253973e+002,4.106393e-001
8.273259e+002,4.162960e-001
8.292543e+002,4.214704e-001
8.311829e+002,4.259750e-001
8.331113e+002,4.297491e-001
8.350399e+002,4.330132e-001
8.369683e+002,4.363679e-001
8.388969e+002,4.401961e-001
8.408253e+002,4.451254e-001
8.427538e+002,4.514123e-001
8.446824e+002,4.589384e-001
8.466108e+002,4.669740e-001
8.485394e+002,4.754567e-001
8.504678e+002,4.841350e-001
8.523964e+002,4.925691e-001
8.543248e+002,5.007985e-001
8.562534e+002,5.092097e-001
8.581818e+002,5.176750e-001
8.601104e+002,5.261865e-001
8.620388e+002,5.350571e-001
8.639673e+002,5.438660e-001
8.658958e+002,5.526620e-001
8.678243e+002,5.615237e-001
8.697528e+002,5.711346e-001
8.716813e+002,5.819084e-001
8.736098e+002,5.939317e-001
8.755383e+002,6.068082e-001
8.774668e+002,6.202919e-001
8.793953e+002,6.340588e-001
8.813238e+002,6.485544e-001
8.832523e+002,6.640028e-001
8.851808e+002,6.803082e-001
8.871093e+002,6.961814e-001
8.890378e+002,7.130514e-001
8.909663e+002,7.304381e-001
8.928948e+002,7.480823e-001
8.948233e+002,7.642347e-001
8.967518e+002,7.791312e-001
8.986803e+002,7.926258e-001
9.006088e+002,8.055519e-001
9.025373e+002,8.178028e-001
9.044658e+002,8.309796e-001
9.063943e+002,8.437986e-001
9.083228e+002,8.572225e-001
9.102513e+002,8.699059e-001
9.121798e+002,8.809761e-001
9.141083e+002,8.888371e-001
9.160368e+002,8.938195e-001
9.179653e+002,8.962564e-001
9.198938e+002,8.997198e-001
9.218223e+002,9.046550e-001
9.237508e+002,9.126601e-001
9.256793e+002,9.233097e-001
9.276078e+002,9.377675e-001
9.295363e+002,9.537620e-001
9.314648e+002,9.730473e-001
9.333932e+002,9.936906e-001
9.353218e+002,1.013889e+000
9.372502e+002,1.030510e+000
9.391788e+002,1.045968e+000
9.411072e+002,1.058811e+000
9.430358e+002,1.071115e+000
9.449643e+002,1.080024e+000
9.468928e+002,1.087316e+000
9.488213e+002,1.092091e+000
9.507498e+002,1.097800e+000
9.526783e+002,1.102653e+000
9.546068e+002,1.109995e+000
9.565353e+002,1.118054e+000
9.584637e+002,1.127029e+000
9.603923e+002,1.133649e+000
9.623207e+002,1.140486e+000
9.642493e+002,1.143939e+000
9.661777e+002,1.145305e+000
9.681063e+002,1.144440e+000
9.700347e+002,1.143323e+000
9.719633e+002,1.139265e+000
9.738917e+002,1.134267e+000
9.758203e+002,1.125767e+000
9.777487e+002,1.117126e+000
9.796772e+002,1.107298e+000
9.816057e+002,1.099224e+000
9.835342e+002,1.092449e+000
9.854627e+002,1.088980e+000
9.873912e+002,1.085832e+000
9.893197e+002,1.085196e+000
9.912482e+002,1.084930e+000
9.931768e+002,1.087040e+000
9.951052e+002,1.090148e+000
9.970338e+002,1.095944e+000
9.989622e+002,1.102708e+000
1.000891e+003,1.110749e+000
1.002819e+003,1.116680e+000
1.004748e+003,1.122028e+000
1.006676e+003,1.122870e+000
1.008605e+003,1.120400e+000
1.010533e+003,1.114092e+000
1.012462e+003,1.107774e+000
1.014390e+003,1.099795e+000
1.016319e+003,1.091738e+000
1.018247e+003,1.081974e+000
1.020176e+003,1.072675e+000
1.022104e+003,1.062274e+000
1.024033e+003,1.053352e+000
1.025961e+003,1.044960e+000
1.027890e+003,1.038114e+000
1.029818e+003,1.030544e+000
1.031747e+003,1.023769e+000
1.033675e+003,1.015458e+000
1.035604e+003,1.007346e+000
1.037532e+003,9.980842e-001
1.039461e+003,9.886757e-001
1.041389e+003,9.779122e-001
1.043318e+003,9.665361e-001
1.045246e+003,9.538506e-001
1.047175e+003,9.420733e-001
1.049103e+003,9.289103e-001
1.051032e+003,9.155738e-001
1.052960e+003,9.019327e-001
1.054889e+003,8.893849e-001
1.056817e+003,8.770733e-001
1.058746e+003,8.661872e-001
1.060674e+003,8.561416e-001
1.062603e+003,8.482166e-001
1.064531e+003,8.409288e-001
1.066460e+003,8.363249e-001
1.068388e+003,8.332035e-001
1.070317e+003,8.312246e-001
1.072245e+003,8.290464e-001
1.074174e+003,8.267640e-001
1.076102e+003,8.228924e-001
1.078031e+003,8.183804e-001
1.079959e+003,8.124490e-001
1.081888e+003,8.057804e-001
1.083816e+003,7.979270e-001
1.085745e+003,7.902022e-001
1.087673e+003,7.821659e-001
1.089602e+003,7.747425e-001
1.091530e+003,7.680247e-001
1.093459e+003,7.620628e-001
1.095387e+003,7.562005e-001
1.097316e+003,7.511737e-001
1.099244e+003,7.465023e-001
1.101173e+003,7.433714e-001
1.103101e+003,7.415402e-001
1.105030e+003,7.422352e-001
1.106958e+003,7.448205e-001
1.108887e+003,7.500450e-001
1.110815e+003,7.566018e-001
1.112744e+003,7.645847e-001
1.114672e+003,7.720569e-001
1.116601e+003,7.793315e-001
1.118529e+003,7.844313e-001
1.120458e+003,7.878078e-001
1.122386e+003,7.896426e-001
1.124315e+003,7.899458e-001
1.126243e+003,7.884532e-001
1.128172e+003,7.863334e-001
1.130100e+003,7.824490e-001
1.132029e+003,7.782922e-001
1.133957e+003,7.732663e-001
1.135886e+003,7.679653e-001
1.137814e+003,7.624140e-001
1.139743e+003,7.575948e-001
1.141671e+003,7.531311e-001
1.143600e+003,7.492615e-001
1.145528e+003,7.450512e-001
1.147457e+003,7.414584e-001
1.149385e+003,7.378687e-001
1.151314e+003,7.349250e-001
1.153242e+003,7.315534e-001
1.155171e+003,7.278798e-001
1.157099e+003,7.235661e-001
1.159028e+003,7.194647e-001
1.160956e+003,7.146107e-001
1.162885e+003,7.092531e-001
1.164813e+003,7.031736e-001
1.166742e+003,6.972587e-001
1.168670e+003,6.908374e-001
1.170599e+003,6.846303e-001
1.172527e+003,6.784905e-001
1.174456e+003,6.729327e-001
1.176384e+003,6.675056e-001
1.178313e+003,6.622406e-001
1.180241e+003,6.566705e-001
1.182170e+003,6.515303e-001
1.184098e+003,6.463630e-001
1.186027e+003,6.417760e-001
1.187955e+003,6.371139e-001
1.189884e+003,6.328512e-001
1.191812e+003,6.288267e-001
1.193741e+003,6.253302e-001
1.195669e+003,6.217024e-001
1.197598e+003,6.182963e-001
1.199526e+003,6.146812e-001
1.201455e+003,6.110932e-001
1.203383e+003,6.075912e-001
1.205312e+003,6.044357e-001
1.207240e+003,6.012905e-001
1.209169e+003,5.984602e-001
1.211097e+003,5.955232e-001
1.213026e+003,5.927284e-001
1.214954e+003,5.898251e-001
1.216883e+003,5.871184e-001
1.218811e+003,5.842451e-001
1.220740e+003,5.816209e-001
1.222668e+003,5.790166e-001
1.224597e+003,5.768108e-001
1.226525e+003,5.744784e-001
1.228453e+003,5.720881e-001
1.230382e+003,5.695965e-001
1.232311e+003,5.671623e-001
1.234239e+003,5.647218e-001
1.236167e+003,5.625109e-001
1.238096e+003,5.603510e-001
1.240025e+003,5.584535e-001
1.241953e+003,5.564839e-001
1.243882e+003,5.544909e-001
1.245810e+003,5.526160e-001
1.247739e+003,5.507718e-001
1.249667e+003,5.485994e-001
1.251596e+003,5.465164e-001
1.253524e+003,5.446740e-001
1.255453e+003,5.430489e-001
1.257381e+003,5.412320e-001
1.259310e+003,5.396393e-001
1.261238e+003,5.379571e-001
1.263167e+003,5.364097e-001
1.265095e+003,5.348031e-001
1.267024e+003,5.331281e-001
1.268952e+003,5.314920e-001
1.270880e+003,5.300647e-001
1.272809e+003,5.284100e-001
1.274738e+003,5.268299e-001
1.276666e+003,5.253278e-001
1.278594e+003,5.239041e-001
1.280523e+003,5.223979e-001
1.282452e+003,5.209864e-001
1.284380e+003,5.194924e-001
1.286308e+003,5.182031e-001
1.288237e+003,5.168784e-001
1.290166e+003,5.155577e-001
1.292094e+003,5.142151e-001
1.294022e+003,5.129840e-001
1.295951e+003,5.118132e-001
1.297880e+003,5.106269e-001
1.299808e+003,5.094345e-001
1.301736e+003,5.082813e-001
1.303665e+003,5.071388e-001
1.305594e+003,5.060406e-001
1.307522e+003,5.049403e-001
1.309450e+003,5.038444e-001
1.311379e+003,5.029675e-001
1.313307e+003,5.020936e-001
1.315236e+003,5.010456e-001
1.317164e+003,5.002539e-001
1.319093e+003,4.991811e-001
1.321021e+003,4.978291e-001
1.322950e+003,4.965297e-001
1.324878e+003,4.954021e-001
1.326807e+003,4.944629e-001
1.328735e+003,4.935549e-001
1.330664e+003,4.926895e-001
1.332592e+003,4.919958e-001
1.334521e+003,4.914115e-001
1.336449e+003,4.910758e-001
1.338378e+003,4.907314e-001
1.340307e+003,4.893661e-001
1.342235e+003,4.876137e-001
1.344163e+003,4.866287e-001
1.346092e+003,4.857810e-001
1.348021e+003,4.851682e-001
1.349949e+003,4.843918e-001
1.351877e+003,4.835775e-001
1.353806e+003,4.827257e-001
1.355734e+003,4.818292e-001
1.357663e+003,4.811138e-001
1.359591e+003,4.808390e-001
1.361520e+003,4.809595e-001
1.363448e+003,4.796642e-001
1.365377e+003,4.781845e-001
1.367305e+003,4.777934e-001
1.369234e+003,4.770891e-001
1.371162e+003,4.766251e-001
1.373091e+003,4.768217e-001
1.375019e+003,4.758761e-001
1.376948e+003,4.745725e-001
1.378876e+003,4.736902e-001
1.380805e+003,4.727807e-001
1.382733e+003,4.722583e-001
1.384662e+003,4.721482e-001
1.386590e+003,4.721489e-001
1.388519e+003,4.707067e-001
1.390447e+003,4.697135e-001
1.392376e+003,4.696438e-001
1.394304e+003,4.701365e-001
1.396233e+003,4.691994e-001
1.398161e+003,4.685333e-001
1.400090e+003,4.671656e-001
1.402018e+003,4.663891e-001
1.403947e+003,4.663011e-001
1.405875e+003,4.654431e-001
1.407804e+003,4.646671e-001
1.409732e+003,4.643956e-001
1.411661e+003,4.638753e-001
1.413589e+003,4.632916e-001
1.415518e+003,4.635089e-001
1.417446e+003,4.645045e-001
1.419375e+003,4.636928e-001
1.421303e+003,4.624307e-001
1.423232e+003,4.623323e-001
1.425160e+003,4.612534e-001
1.427089e+003,4.607490e-001
1.429017e+003,4.607003e-001
1.430946e+003,4.598225e-001
1.432874e+003,4.592428e-001
1.434803e+003,4.596318e-001
1.436731e+003,4.590861e-001
1.438660e+003,4.573043e-001
1.440588e+003,4.566180e-001
1.442517e+003,4.559968e-001
1.444445e+003,4.556580e-001
1.446374e+003,4.558117e-001
1.448302e+003,4.551874e-001
1.450231e+003,4.543408e-001
1.452159e+003,4.544483e-001
1.454088e+003,4.555383e-001
1.456016e+003,4.583483e-001
1.457945e+003,4.564071e-001
1.459873e+003,4.529496e-001
1.461802e+003,4.521640e-001
1.463730e+003,4.527379e-001
1.465659e+003,4.517363e-001
1.467587e+003,4.506824e-001
1.469516e+003,4.510858e-001
1.471444e+003,4.532022e-001
1.473373e+003,4.529196e-001
1.475301e+003,4.507504e-001
1.477230e+003,4.487483e-001
1.479158e+003,4.479697e-001
1.481087e+003,4.476335e-001
1.483015e+003,4.468567e-001
1.484944e+003,4.472196e-001
1.486872e+003,4.486510e-001
1.488801e+003,4.498126e-001
1.490729e+003,4.476405e-001
1.492658e+003,4.456497e-001
1.494586e+003,4.460997e-001
1.496515e+003,4.467567e-001
1.498443e+003,4.455835e-001
1.500372e+003,4.443435e-001
1.502300e+003,4.443256e-001
1.504229e+003,4.460008e-001
1.506157e+003,4.509655e-001
1.508086e+003,4.478953e-001
1.510014e+003,4.443620e-001
1.511943e+003,4.426812e-001
1.513871e+003,4.423482e-001
1.515800e+003,4.436799e-001
1.517728e+003,4.434509e-001
1.519657e+003,4.442371e-001
1.521585e+003,4.455301e-001
1.523514e+003,4.430810e-001
1.525442e+003,4.421799e-001
1.527371e+003,4.401408e-001
1.529299e+003,4.386495e-001
1.531228e+003,4.390852e-001
1.533156e+003,4.401807e-001
1.535085e+003,4.386151e-001
1.537013e+003,4.395804e-001
1.538942e+003,4.436191e-001
1.540870e+003,4.454148e-001
1.542799e+003,4.412683e-001
1.544727e+003,4.380807e-001
1.546656e+003,4.356377e-001
1.548584e+003,4.356960e-001
1.550513e+003,4.355170e-001
1.552441e+003,4.359218e-001
1.554370e+003,4.372354e-001
1.556298e+003,4.388075e-001
1.558227e+003,4.428480e-001
1.560155e+003,4.355127e-001
1.562084e+003,4.334554e-001
1.564012e+003,4.333331e-001
1.565941e+003,4.329405e-001
1.567869e+003,4.339153e-001
1.569798e+003,4.342212e-001
1.571726e+003,4.327419e-001
1.573655e+003,4.334831e-001
1.575583e+003,4.348272e-001
1.577512e+003,4.322557e-001
1.579440e+003,4.305386e-001
1.581369e+003,4.301871e-001
1.583297e+003,4.303162e-001
1.585226e+003,4.305249e-001
1.587154e+003,4.308668e-001
1.589083e+003,4.311509e-001
1.591011e+003,4.309582e-001
1.592940e+003,4.307006e-001
1.594868e+003,4.302331e-001
1.596797e+003,4.296102e-001
1.598725e+003,4.295669e-001
1.600654e+003,4.300831e-001
1.602582e+003,4.305971e-001
1.604511e+003,4.307487e-001
1.606439e+003,4.310846e-001
1.608368e+003,4.310658e-001
1.610296e+003,4.302278e-001
1.612225e+003,4.297764e-001
1.614153e+003,4.308214e-001
1.616082e+003,4.326906e-001
1.618010e+003,4.316832e-001
1.619939e+003,4.316021e-001
1.621867e+003,4.331012e-001
1.623796e+003,4.329547e-001
1.625724e+003,4.319780e-001
1.627653e+003,4.316550e-001
1.629581e+003,4.305073e-001
1.631510e+003,4.306130e-001
1.633438e+003,4.322135e-001
1.635367e+003,4.348623e-001
1.637295e+003,4.332772e-001
1.639224e+003,4.319341e-001
1.641152e+003,4.311865e-001
1.643081e+003,4.312412e-001
1.645009e+003,4.329709e-001
1.646938e+003,4.340836e-001
1.648866e+003,4.312304e-001
1.650795e+003,4.323181e-001
1.652723e+003,4.359866e-001
1.654652e+003,4.316395e-001
1.656580e+003,4.297025e-001
1.658509e+003,4.290659e-001
1.660437e+003,4.292592e-001
1.662366e+003,4.292740e-001
1.664294e+003,4.276281e-001
1.666223e+003,4.279190e-001
1.668151e+003,4.298790e-001
1.670080e+003,4.309018e-001
1.672008e+003,4.296482e-001
1.673937e+003,4.295871e-001
1.675865e+003,4.281547e-001
1.677794e+003,4.272841e-001
1.679722e+003,4.276108e-001
1.681651e+003,4.286298e-001
1.683579e+003,4.309347e-001
1.685508e+003,4.282389e-001
1.687436e+003,4.275220e-001
1.689365e+003,4.270190e-001
1.691293e+003,4.258303e-001
1.693222e+003,4.259247e-001
1.695150e+003,4.273528e-001
1.697079e+003,4.275859e-001
1.699007e+003,4.279262e-001
1.700936e+003,4.257648e-001
1.702864e+003,4.254423e-001
1.704793e+003,4.262919e-001
1.706721e+003,4.247747e-001
1.708650e+003,4.234038e-001
1.710578e+003,4.226648e-001
1.712507e+003,4.228652e-001
1.714435e+003,4.244343e-001
1.716364e+003,4.259111e-001
1.718292e+003,4.237813e-001
1.720221e+003,4.218671e-001
1.722149e+003,4.217471e-001
1.724078e+003,4.211579e-001
1.726006e+003,4.204782e-001
1.727935e+003,4.204987e-001
1.729863e+003,4.209848e-001
1.731792e+003,4.220554e-001
1.733720e+003,4.232036e-001
1.735649e+003,4.207793e-001
1.737577e+003,4.211170e-001
1.739506e+003,4.213763e-001
1.741434e+003,4.206153e-001
1.743363e+003,4.203134e-001
1.745291e+003,4.199260e-001
1.747220e+003,4.205422e-001
1.749148e+003,4.205213e-001
1.751077e+003,4.190929e-001
1.753005e+003,4.178699e-001
1.754934e+003,4.182095e-001
1.756862e+003,4.182498e-001
1.758791e+003,4.176681e-001
1.760719e+003,4.176937e-001
1.762648e+003,4.163120e-001
1.764576e+003,4.155432e-001
1.766505e+003,4.160792e-001
1.768433e+003,4.168083e-001
1.770362e+003,4.182010e-001
1.772290e+003,4.186028e-001
1.774219e+003,4.167717e-001
1.776147e+003,4.156332e-001
1.778076e+003,4.151667e-001
1.780004e+003,4.150837e-001
1.781933e+003,4.143725e-001
1.783861e+003,4.144261e-001
1.785790e+003,4.144380e-001
1.787718e+003,4.146492e-001
1.789647e+003,4.156560e-001
1.791575e+003,4.164695e-001
1.793504e+003,4.149682e-001
1.795432e+003,4.141956e-001
1.797361e+003,4.137628e-001
1.799289e+003,4.139892e-001
1.801218e+003,4.138434e-001
1.803146e+003,4.132760e-001
1.805075e+003,4.131241e-001
1.807003e+003,4.132639e-001
1.808932e+003,4.133604e-001
1.810860e+003,4.129233e-001
1.812789e+003,4.119148e-001
1.814717e+003,4.115104e-001
1.816646e+003,4.114717e-001
1.818574e+003,4.115144e-001
1.820503e+003,4.117427e-001
1.822431e+003,4.123338e-001
1.824360e+003,4.126145e-001
1.826288e+003,4.119896e-001
1.828217e+003,4.124555e-001
1.830145e+003,4.118789e-001
1.832074e+003,4.105501e-001
1.834002e+003,4.105951e-001
1.835931e+003,4.109181e-001
1.837859e+003,4.108461e-001
1.839788e+003,4.107254e-001
1.841716e+003,4.115910e-001
1.843645e+003,4.120828e-001
1.845573e+003,4.108663e-001
1.847502e+003,4.100671e-001
1.849430e+003,4.095226e-001
1.851359e+003,4.094625e-001
1.853287e+003,4.097202e-001
1.855216e+003,4.098731e-001
1.857144e+003,4.100233e-001
1.859073e+003,4.098779e-001
1.861001e+003,4.094830e-001
1.862930e+003,4.091717e-001
1.864858e+003,4.094799e-001
1.866786e+003,4.105267e-001
1.868715e+003,4.107723e-001
1.870644e+003,4.095796e-001
1.872572e+003,4.092602e-001
1.874500e+003,4.091626e-001
1.876429e+003,4.089448e-001
1.878358e+003,4.086489e-001
1.880286e+003,4.084237e-001
1.882215e+003,4.082629e-001
1.884143e+003,4.083222e-001
1.886072e+003,4.086235e-001
1.888000e+003,4.093469e-001
1.889929e+003,4.092865e-001
1.891857e+003,4.089427e-001
1.893786e+003,4.090539e-001
1.895714e+003,4.086616e-001
1.897643e+003,4.081772e-001
1.899571e+003,4.081661e-001
1.901500e+003,4.082332e-001
1.903428e+003,4.085140e-001
1.905357e+003,4.088734e-001
1.907285e+003,4.092138e-001
1.909214e+003,4.091847e-001
1.911142e+003,4.086223e-001
1.913071e+003,4.082946e-001
1.914999e+003,4.083558e-001
1.916927e+003,4.087416e-001
1.918856e+003,4.088117e-001
1.920785e+003,4.091954e-001
1.922713e+003,4.094190e-001
1.924641e+003,4.088173e-001
1.926570e+003,4.084943e-001
1.928499e+003,4.081286e-001
1.930427e+003,4.079285e-001
1.932355e+003,4.078824e-001
1.934284e+003,4.079929e-001
1.936213e+003,4.081254e-001
1.938141e+003,4.082924e-001
1.940069e+003,4.087432e-001
1.941998e+003,4.090439e-001
1.943927e+003,4.084355e-001
1.945855e+003,4.080745e-001
1.947783e+003,4.076365e-001
1.949712e+003,4.075192e-001
1.951641e+003,4.076550e-001
1.953569e+003,4.080521e-001
1.955497e+003,4.082160e-001
1.957426e+003,4.081910e-001
1.959354e+003,4.081006e-001
1.961283e+003,4.078101e-001
1.963211e+003,4.074874e-001
1.965140e+003,4.077370e-001
1.967068e+003,4.079456e-001
1.968997e+003,4.077646e-001
1.970925e+003,4.077759e-001
1.972854e+003,4.078647e-001
1.974782e+003,4.077931e-001
1.976711e+003,4.075990e-001
1.978639e+003,4.073684e-001
1.980568e+003,4.071735e-001
1.982496e+003,4.070901e-001
1.984425e+003,4.072509e-001
1.986354e+003,4.075978e-001
1.988282e+003,4.078701e-001
1.990210e+003,4.080462e-001
1.992139e+003,4.078779e-001
1.994068e+003,4.072931e-001
1.995996e+003,4.070164e-001
1.997924e+003,4.069076e-001
1.999853e+003,4.069907e-001
2.001781e+003,4.071640e-001
2.003710e+003,4.074173e-001
2.005638e+003,4.075500e-001
2.007567e+003,4.075471e-001
2.009495e+003,4.073085e-001
2.011424e+003,4.070250e-001
2.013352e+003,4.068563e-001
2.015281e+003,4.071063e-001
2.017209e+003,4.073390e-001
2.019138e+003,4.074095e-001
2.021066e+003,4.074646e-001
2.022995e+003,4.075234e-001
2.024923e+003,4.075176e-001
2.026852e+003,4.072748e-001
2.028780e+003,4.069173e-001
2.030709e+003,4.067750e-001
2.032637e+003,4.068324e-001
2.034566e+003,4.070814e-001
2.036494e+003,4.072649e-001
2.038423e+003,4.074168e-001
2.040351e+003,4.075260e-001
2.042280e+003,4.073018e-001
2.044208e+003,4.069057e-001
2.046137e+003,4.066845e-001
2.048065e+003,4.065917e-001
2.049994e+003,4.066995e-001
2.051922e+003,4.069440e-001
2.053851e+003,4.072054e-001
2.055779e+003,4.072211e-001
2.057708e+003,4.071538e-001
2.059636e+003,4.069159e-001
2.061565e+003,4.066463e-001
2.063493e+003,4.065526e-001
2.065422e+003,4.065258e-001
2.067350e+003,4.065725e-001
2.069279e+003,4.068695e-001
2.071207e+003,4.070711e-001
2.073136e+003,4.070912e-001
2.075064e+003,4.068717e-001
2.076993e+003,4.066074e-001
2.078921e+003,4.063458e-001
2.080850e+003,4.062273e-001
2.082778e+003,4.062594e-001
2.084707e+003,4.065355e-001
2.086635e+003,4.068779e-001
2.088564e+003,4.069635e-001
2.090492e+003,4.067549e-001
2.092421e+003,4.066007e-001
2.094349e+003,4.063480e-001
2.096278e+003,4.061515e-001
2.098206e+003,4.061733e-001
2.100135e+003,4.063812e-001
2.102063e+003,4.066372e-001
2.103992e+003,4.067547e-001
2.105920e+003,4.067474e-001
2.107849e+003,4.066412e-001
2.109777e+003,4.063653e-001
2.111706e+003,4.061525e-001
2.113634e+003,4.061244e-001
2.115563e+003,4.061508e-001
2.117491e+003,4.063042e-001
2.119420e+003,4.066128e-001
2.121348e+003,4.067550e-001
2.123277e+003,4.067598e-001
2.125205e+003,4.065890e-001
2.127134e+003,4.063843e-001
2.129062e+003,4.061225e-001
2.130991e+003,4.060274e-001
2.132919e+003,4.062440e-001
2.134848e+003,4.065622e-001
2.136776e+003,4.067638e-001
2.138705e+003,4.068903e-001
2.140633e+003,4.067754e-001
2.142562e+003,4.065069e-001
2.144490e+003,4.062049e-001
2.146419e+003,4.060779e-001
2.148347e+003,4.061083e-001
2.150276e+003,4.063219e-001
2.152204e+003,4.065490e-001
2.154133e+003,4.067311e-001
2.156061e+003,4.068259e-001
2.157990e+003,4.067786e-001
2.159918e+003,4.065504e-001
2.161847e+003,4.063382e-001
2.163775e+003,4.061895e-001
2.165704e+003,4.062514e-001
2.167632e+003,4.064833e-001
2.169561e+003,4.068084e-001
2.171489e+003,4.069070e-001
2.173418e+003,4.069073e-001
2.175346e+003,4.067495e-001
2.177275e+003,4.064802e-001
2.179203e+003,4.062754e-001
2.181132e+003,4.062910e-001
2.183060e+003,4.063244e-001
2.184989e+003,4.064516e-001
2.186917e+003,4.067423e-001
2.188846e+003,4.069180e-001
2.190774e+003,4.068242e-001
2.192703e+003,4.066972e-001
2.194631e+003,4.066029e-001
2.196560e+003,4.065071e-001
2.198488e+003,4.064585e-001
2.200417e+003,4.066211e-001
2.202345e+003,4.068142e-001
2.204274e+003,4.070106e-001
2.206202e+003,4.070904e-001
2.208131e+003,4.070623e-001
2.210059e+003,4.069074e-001
2.211988e+003,4.067659e-001
2.213916e+003,4.066450e-001
2.215845e+003,4.065842e-001
2.217773e+003,4.067321e-001
2.219702e+003,4.070123e-001
2.221630e+003,4.071414e-001
2.223559e+003,4.072347e-001
2.225487e+003,4.072316e-001
2.227416e+003,4.071579e-001
2.229344e+003,4.069537e-001
2.231273e+003,4.068642e-001
2.233201e+003,4.070216e-001
2.235130e+003,4.072765e-001
2.237058e+003,4.073846e-001
2.238987e+003,4.075524e-001
2.240915e+003,4.076012e-001
2.242844e+003,4.075539e-001
2.244772e+003,4.074312e-001
2.246701e+003,4.073316e-001
2.248629e+003,4.073151e-001
2.250558e+003,4.074293e-001
2.252486e+003,4.075314e-001
2.254415e+003,4.077869e-001
2.256343e+003,4.080683e-001
2.258272e+003,4.081953e-001
2.260200e+003,4.081621e-001
2.262129e+003,4.080772e-001
2.264057e+003,4.080385e-001
2.265986e+003,4.080753e-001
2.267914e+003,4.080788e-001
2.269843e+003,4.082771e-001
2.271771e+003,4.085305e-001
2.273700e+003,4.086188e-001
2.275628e+003,4.085815e-001
2.277557e+003,4.084024e-001
2.279485e+003,4.081242e-001
2.281414e+003,4.078898e-001
2.283342e+003,4.078684e-001
2.285271e+003,4.082093e-001
2.287199e+003,4.086600e-001
2.289128e+003,4.091490e-001
2.291056e+003,4.095708e-001
2.292985e+003,4.099061e-001
2.294913e+003,4.100972e-001
2.296842e+003,4.103253e-001
2.298770e+003,4.106083e-001
2.300699e+003,4.110339e-001
2.302627e+003,4.115397e-001
2.304556e+003,4.123087e-001
2.306484e+003,4.133484e-001
2.308413e+003,4.143745e-001
2.310341e+003,4.150271e-001
2.312270e+003,4.153838e-001
2.314198e+003,4.156290e-001
2.316127e+003,4.162920e-001
2.318055e+003,4.176396e-001
2.319984e+003,4.195057e-001
2.321912e+003,4.210562e-001
2.323841e+003,4.219255e-001
2.325769e+003,4.226654e-001
2.327698e+003,4.235497e-001
2.329626e+003,4.242600e-001
2.331555e+003,4.246061e-001
2.333483e+003,4.245293e-001
2.335412e+003,4.250293e-001
2.337340e+003,4.257908e-001
2.339269e+003,4.264749e-001
2.341197e+003,4.271813e-001
2.343126e+003,4.270298e-001
2.345054e+003,4.250802e-001
2.346983e+003,4.214607e-001
2.348911e+003,4.205407e-001
2.350840e+003,4.232186e-001
2.352768e+003,4.267174e-001
2.354697e+003,4.299982e-001
2.356625e+003,4.326826e-001
2.358554e+003,4.342085e-001
2.360482e+003,4.343649e-001
2.362411e+003,4.339401e-001
2.364339e+003,4.323181e-001
2.366268e+003,4.298474e-001
2.368196e+003,4.272300e-001
2.370125e+003,4.249581e-001
2.372053e+003,4.227231e-001
2.373982e+003,4.202706e-001
2.375910e+003,4.178977e-001
2.377839e+003,4.160125e-001
2.379767e+003,4.140596e-001
2.381696e+003,4.122248e-001
2.383624e+003,4.109930e-001
2.385553e+003,4.102465e-001
2.387481e+003,4.100408e-001
2.389410e+003,4.101864e-001
2.391338e+003,4.102796e-001
2.393267e+003,4.103162e-001
2.395195e+003,4.102339e-001
2.397124e+003,4.101228e-001
2.399052e+003,4.100288e-001
2.400981e+003,4.100396e-001
2.402909e+003,4.101160e-001
2.404838e+003,4.103241e-001
2.406766e+003,4.105751e-001
2.408695e+003,4.107221e-001
2.410623e+003,4.108046e-001
2.412552e+003,4.107924e-001
2.414480e+003,4.106407e-001
2.416409e+003,4.105782e-001
2.418337e+003,4.106192e-001
2.420266e+003,4.107258e-001
2.422194e+003,4.108299e-001
2.424123e+003,4.110377e-001
2.426051e+003,4.112066e-001
2.427980e+003,4.112842e-001
2.429908e+003,4.112135e-001
2.431837e+003,4.111489e-001
2.433765e+003,4.110835e-001
2.435694e+003,4.110501e-001
2.437622e+003,4.111340e-001
2.439551e+003,4.113893e-001
2.441479e+003,4.115991e-001
2.443408e+003,4.116624e-001
2.445336e+003,4.116728e-001
2.447265e+003,4.116921e-001
2.449193e+003,4.116382e-001
2.451122e+003,4.115702e-001
2.453050e+003,4.116148e-001
2.454979e+003,4.117690e-001
2.456907e+003,4.119378e-001
2.458836e+003,4.120892e-001
2.460764e+003,4.122036e-001
2.462693e+003,4.122499e-001
2.464621e+003,4.121748e-001
2.466550e+003,4.121281e-001
2.468478e+003,4.121293e-001
2.470406e+003,4.122618e-001
2.472335e+003,4.124036e-001
2.474264e+003,4.125912e-001
2.476192e+003,4.126677e-001
2.478121e+003,4.126879e-001
2.480049e+003,4.127073e-001
2.481978e+003,4.126756e-001
2.483906e+003,4.126269e-001
2.485834e+003,4.126442e-001
2.487763e+003,4.127843e-001
2.489692e+003,4.128751e-001
2.491620e+003,4.129246e-001
2.493549e+003,4.130829e-001
2.495477e+003,4.131897e-001
2.497406e+003,4.132873e-001
2.499334e+003,4.133304e-001
2.501262e+003,4.133095e-001
2.503191e+003,4.132937e-001
2.505120e+003,4.133693e-001
2.507048e+003,4.135277e-001
2.508977e+003,4.136429e-001
2.510905e+003,4.136276e-001
2.512833e+003,4.136682e-001
2.514762e+003,4.137412e-001
2.516690e+003,4.137690e-001
2.518619e+003,4.137989e-001
2.520548e+003,4.138870e-001
2.522476e+003,4.139007e-001
2.524405e+003,4.139127e-001
2.526333e+003,4.140220e-001
2.528261e+003,4.142224e-001
2.530190e+003,4.142563e-001
2.532119e+003,4.142956e-001
2.534047e+003,4.143509e-001
2.535976e+003,4.143654e-001
2.537904e+003,4.143721e-001
2.539833e+003,4.144194e-001
2.541761e+003,4.145547e-001
2.543689e+003,4.146999e-001
2.545618e+003,4.146692e-001
2.547547e+003,4.147094e-001
2.549475e+003,4.147983e-001
2.551404e+003,4.148876e-001
2.553332e+003,4.149137e-001
2.555260e+003,4.148588e-001
2.557189e+003,4.148203e-001
2.559117e+003,4.148847e-001
2.561046e+003,4.150057e-001
2.562975e+003,4.151607e-001
2.564903e+003,4.153185e-001
2.566832e+003,4.153964e-001
2.568760e+003,4.153826e-001
2.570688e+003,4.154093e-001
2.572617e+003,4.154333e-001
2.574545e+003,4.154441e-001
2.576474e+003,4.154419e-001
2.578403e+003,4.155788e-001
2.580331e+003,4.157814e-001
2.582260e+003,4.158846e-001
2.584188e+003,4.159306e-001
2.586116e+003,4.160146e-001
2.588045e+003,4.158594e-001
2.589973e+003,4.157799e-001
2.591902e+003,4.159283e-001
2.593831e+003,4.160474e-001
2.595759e+003,4.161708e-001
2.597688e+003,4.163490e-001
2.599616e+003,4.164232e-001
2.601544e+003,4.165261e-001
2.603473e+003,4.166115e-001
2.605401e+003,4.166110e-001
2.607330e+003,4.165845e-001
2.609259e+003,4.166287e-001
2.611187e+003,4.167643e-001
2.613115e+003,4.169656e-001
2.615044e+003,4.170836e-001
2.616972e+003,4.171308e-001
2.618901e+003,4.172182e-001
2.620830e+003,4.172585e-001
2.622758e+003,4.172120e-001
2.624687e+003,4.173441e-001
2.626615e+003,4.173635e-001
2.628543e+003,4.174430e-001
2.630472e+003,4.176369e-001
2.632400e+003,4.179075e-001
2.634329e+003,4.180349e-001
2.636258e+003,4.180145e-001
2.638186e+003,4.179917e-001
2.640115e+003,4.178789e-001
2.642043e+003,4.178026e-001
2.643971e+003,4.179318e-001
2.645900e+003,4.181974e-001
2.647828e+003,4.183776e-001
2.649757e+003,4.184860e-001
2.651686e+003,4.185925e-001
2.653614e+003,4.185971e-001
2.655542e+003,4.185938e-001
2.657471e+003,4.185468e-001
2.659399e+003,4.184985e-001
2.661328e+003,4.185684e-001
2.663256e+003,4.188137e-001
2.665185e+003,4.189973e-001
2.667114e+003,4.191027e-001
2.669042e+003,4.191748e-001
2.670970e+003,4.192065e-001
2.672899e+003,4.192559e-001
2.674827e+003,4.193036e-001
2.676756e+003,4.194129e-001
2.678684e+003,4.196584e-001
2.680613e+003,4.197908e-001
2.682542e+003,4.197943e-001
2.684470e+003,4.198561e-001
2.686398e+003,4.199613e-001
2.688327e+003,4.199313e-001
2.690255e+003,4.198022e-001
2.692184e+003,4.197312e-001
2.694112e+003,4.197493e-001
2.696041e+003,4.199297e-001
2.697969e+003,4.202872e-001
2.699898e+003,4.205292e-001
2.701826e+003,4.205886e-001
2.703755e+003,4.205633e-001
2.705683e+003,4.204652e-001
2.707612e+003,4.204794e-001
2.709540e+003,4.205551e-001
2.711469e+003,4.205836e-001
2.713397e+003,4.207907e-001
2.715326e+003,4.210604e-001
2.717254e+003,4.211882e-001
2.719183e+003,4.212152e-001
2.721111e+003,4.213342e-001
2.723040e+003,4.213699e-001
2.724969e+003,4.213378e-001
2.726897e+003,4.212021e-001
2.728825e+003,4.211566e-001
2.730754e+003,4.213500e-001
2.732682e+003,4.215955e-001
2.734611e+003,4.218541e-001
2.736539e+003,4.219150e-001
2.738468e+003,4.218739e-001
2.740396e+003,4.218486e-001
2.742325e+003,4.216926e-001
2.744253e+003,4.217452e-001
2.746182e+003,4.219634e-001
2.748110e+003,4.222733e-001
2.750039e+003,4.225166e-001
2.751967e+003,4.225467e-001
2.753896e+003,4.225978e-001
2.755824e+003,4.225281e-001
2.757753e+003,4.223945e-001
2.759681e+003,4.223695e-001
2.761610e+003,4.225157e-001
2.763538e+003,4.227256e-001
2.765467e+003,4.228531e-001
2.767395e+003,4.230714e-001
2.769324e+003,4.232029e-001
2.771252e+003,4.232874e-001
2.773181e+003,4.234657e-001
2.775109e+003,4.233919e-001
2.777038e+003,4.232512e-001
2.778966e+003,4.233084e-001
2.780895e+003,4.234538e-001
2.782823e+003,4.237050e-001
2.784752e+003,4.239295e-001
2.786680e+003,4.240992e-001
2.788609e+003,4.242143e-001
2.790537e+003,4.241387e-001
2.792466e+003,4.240485e-001
2.794394e+003,4.241477e-001
2.796323e+003,4.243649e-001
2.798251e+003,4.245064e-001
2.800180e+003,4.246832e-001
2.802108e+003,4.248011e-001
2.804037e+003,4.248586e-001
2.805965e+003,4.248724e-001
2.807894e+003,4.248763e-001
2.809822e+003,4.248689e-001
2.811751e+003,4.248119e-001
2.813679e+003,4.250086e-001
2.815608e+003,4.252564e-001
2.817536e+003,4.254809e-001
2.819465e+003,4.256053e-001
2.821393e+003,4.256447e-001
2.823322e+003,4.257018e-001
2.825250e+003,4.255846e-001
2.827179e+003,4.255318e-001
2.829107e+003,4.257210e-001
2.831036e+003,4.260047e-001
2.832964e+003,4.262972e-001
2.834893e+003,4.266302e-001
2.836821e+003,4.270010e-001
2.838750e+003,4.270449e-001
2.840678e+003,4.268211e-001
2.842607e+003,4.267617e-001
2.844535e+003,4.269188e-001
2.846464e+003,4.272422e-001
2.848392e+003,4.274316e-001
2.850321e+003,4.275769e-001
2.852249e+003,4.278757e-001
2.854178e+003,4.280736e-001
2.856106e+003,4.280957e-001
2.858035e+003,4.281129e-001
2.859963e+003,4.279175e-001
2.861892e+003,4.277039e-001
2.863820e+003,4.279791e-001
2.865749e+003,4.283056e-001
2.867677e+003,4.285831e-001
2.869606e+003,4.288176e-001
2.871534e+003,4.289535e-001
2.873463e+003,4.288478e-001
2.875391e+003,4.286058e-001
2.877320e+003,4.285257e-001
2.879248e+003,4.285338e-001
2.881177e+003,4.286245e-001
2.883105e+003,4.289407e-001
2.885034e+003,4.291789e-001
2.886962e+003,4.293385e-001
2.888891e+003,4.294236e-001
2.890819e+003,4.294944e-001
2.892748e+003,4.294629e-001
2.894676e+003,4.295462e-001
2.896605e+003,4.296210e-001
2.898533e+003,4.298080e-001
2.900462e+003,4.301215e-001
2.902390e+003,4.303682e-001
2.904319e+003,4.304482e-001
2.906247e+003,4.304001e-001
2.908176e+003,4.305566e-001
2.910104e+003,4.308181e-001
2.912033e+003,4.308728e-001
2.913961e+003,4.312057e-001
2.915890e+003,4.316247e-001
2.917818e+003,4.317930e-001
2.919747e+003,4.317510e-001
2.921675e+003,4.317518e-001
2.923604e+003,4.317238e-001
2.925532e+003,4.316711e-001
2.927461e+003,4.318025e-001
2.929389e+003,4.318967e-001
2.931318e+003,4.318252e-001
2.933246e+003,4.319260e-001
2.935175e+003,4.320066e-001
2.937103e+003,4.320302e-001
2.939032e+003,4.320695e-001
2.940960e+003,4.320519e-001
2.942889e+003,4.321706e-001
2.944817e+003,4.322205e-001
2.946746e+003,4.321792e-001
2.948674e+003,4.322411e-001
2.950603e+003,4.325638e-001
2.952531e+003,4.327985e-001
2.954460e+003,4.324633e-001
2.956388e+003,4.322764e-001
2.958317e+003,4.323930e-001
2.960245e+003,4.325802e-001
2.962174e+003,4.327053e-001
2.964102e+003,4.326538e-001
2.966031e+003,4.327611e-001
2.967959e+003,4.328671e-001
2.969888e+003,4.329072e-001
2.971816e+003,4.331073e-001
2.973745e+003,4.332584e-001
2.975673e+003,4.331578e-001
2.977602e+003,4.332443e-001
2.979530e+003,4.334373e-001
2.981459e+003,4.334188e-001
2.983387e+003,4.333849e-001
2.985316e+003,4.333446e-001
2.987244e+003,4.334280e-001
2.989173e+003,4.337031e-001
2.991101e+003,4.339026e-001
2.993030e+003,4.339032e-001
2.994958e+003,4.339688e-001
2.996887e+003,4.341747e-001
2.998815e+003,4.340337e-001
3.000744e+003,4.340201e-001
3.002672e+003,4.342677e-001
3.004601e+003,4.342915e-001
3.006529e+003,4.343283e-001
3.008458e+003,4.346582e-001
3.010386e+003,4.349710e-001
3.012315e+003,4.350787e-001
3.014243e+003,4.351292e-001
3.016172e+003,4.352235e-001
3.018100e+003,4.352487e-001
3.020029e+003,4.352710e-001
3.021957e+003,4.353246e-001
3.023886e+003,4.354663e-001
3.025814e+003,4.354699e-001
3.027743e+003,4.355834e-001
3.029671e+003,4.359950e-001
3.031600e+003,4.362276e-001
3.033528e+003,4.362927e-001
3.035457e+003,4.361084e-001
3.037385e+003,4.359955e-001
3.039314e+003,4.362272e-001
3.041242e+003,4.365235e-001
3.043171e+003,4.366108e-001
3.045099e+003,4.366915e-001
3.047028e+003,4.367598e-001
3.048956e+003,4.368353e-001
3.050885e+003,4.369257e-001
3.052813e+003,4.370864e-001
3.054742e+003,4.373419e-001
3.056670e+003,4.373770e-001
3.058599e+003,4.373410e-001
3.060527e+003,4.373927e-001
3.062456e+003,4.376486e-001
3.064384e+003,4.380829e-001
3.066313e+003,4.381726e-001
3.068241e+003,4.380667e-001
3.070170e+003,4.380685e-001
3.072098e+003,4.381593e-001
3.074027e+003,4.383540e-001
3.075955e+003,4.386550e-001
3.077884e+003,4.389341e-001
3.079812e+003,4.389620e-001
3.081741e+003,4.389368e-001
3.083669e+003,4.389466e-001
3.085598e+003,4.390994e-001
3.087526e+003,4.393791e-001
3.089455e+003,4.395202e-001
3.091383e+003,4.394903e-001
3.093312e+003,4.394804e-001
3.095240e+003,4.396178e-001
3.097169e+003,4.398514e-001
3.099097e+003,4.401491e-001
3.101026e+003,4.400572e-001
3.102954e+003,4.400587e-001
3.104883e+003,4.402864e-001
3.106811e+003,4.404523e-001
3.108740e+003,4.405228e-001
3.110668e+003,4.405394e-001
3.112597e+003,4.407016e-001
3.114525e+003,4.409893e-001
3.116454e+003,4.411433e-001
3.118382e+003,4.412291e-001
3.120311e+003,4.413376e-001
3.122239e+003,4.414435e-001
3.124167e+003,4.414558e-001
3.126096e+003,4.415313e-001
3.128025e+003,4.416356e-001
3.129953e+003,4.416313e-001
3.131882e+003,4.416529e-001
3.133810e+003,4.417913e-001
3.135739e+003,4.420853e-001
3.137667e+003,4.423525e-001
3.139595e+003,4.424607e-001
3.141524e+003,4.426633e-001
3.143453e+003,4.427404e-001
3.145381e+003,4.427786e-001
3.147310e+003,4.427307e-001
3.149238e+003,4.429308e-001
3.151167e+003,4.433206e-001
3.153095e+003,4.435853e-001
3.155023e+003,4.437819e-001
3.156952e+003,4.437521e-001
3.158881e+003,4.436910e-001
3.160809e+003,4.436910e-001
3.162738e+003,4.437587e-001
3.164666e+003,4.440424e-001
3.166594e+003,4.441872e-001
3.168523e+003,4.442828e-001
3.170452e+003,4.444717e-001
3.172380e+003,4.447478e-001
3.174309e+003,4.449657e-001
3.176237e+003,4.452584e-001
3.178166e+003,4.454483e-001
3.180094e+003,4.454735e-001
3.182022e+003,4.455168e-001
3.183951e+003,4.457633e-001
3.185880e+003,4.460950e-001
3.187808e+003,4.462732e-001
3.189737e+003,4.463032e-001
3.191665e+003,4.464384e-001
3.193594e+003,4.466144e-001
3.195522e+003,4.467703e-001
3.197450e+003,4.469289e-001
3.199379e+003,4.471402e-001
3.201308e+003,4.474628e-001
3.203236e+003,4.476770e-001
3.205165e+003,4.479392e-001
3.207093e+003,4.480427e-001
3.209021e+003,4.483077e-001
3.210950e+003,4.485187e-001
3.212878e+003,4.487137e-001
3.214807e+003,4.487733e-001
3.216736e+003,4.488631e-001
3.218664e+003,4.492130e-001
3.220593e+003,4.493057e-001
3.222521e+003,4.494559e-001
3.224449e+003,4.496097e-001
3.226378e+003,4.498137e-001
3.228306e+003,4.499759e-001
3.230235e+003,4.502112e-001
3.232164e+003,4.504288e-001
3.234092e+003,4.504961e-001
3.236021e+003,4.507432e-001
3.237949e+003,4.510678e-001
3.239877e+003,4.512751e-001
3.241806e+003,4.514008e-001
3.243734e+003,4.517308e-001
3.245663e+003,4.519023e-001
3.247592e+003,4.517543e-001
3.249520e+003,4.518029e-001
3.251448e+003,4.521366e-001
3.253377e+003,4.526178e-001
3.255305e+003,4.528697e-001
3.257234e+003,4.528941e-001
3.259162e+003,4.528378e-001
3.261091e+003,4.528096e-001
3.263020e+003,4.529516e-001
3.264948e+003,4.532998e-001
3.266876e+003,4.535781e-001
3.268805e+003,4.538341e-001
3.270733e+003,4.541251e-001
3.272662e+003,4.544301e-001
3.274591e+003,4.545833e-001
3.276519e+003,4.544877e-001
3.278448e+003,4.544144e-001
3.280376e+003,4.545027e-001
3.282304e+003,4.547353e-001
3.284233e+003,4.549597e-001
3.286161e+003,4.550328e-001
3.288090e+003,4.553671e-001
3.290019e+003,4.557894e-001
3.291947e+003,4.559169e-001
3.293875e+003,4.560321e-001
3.295804e+003,4.562545e-001
3.297732e+003,4.561536e-001
3.299661e+003,4.562433e-001
3.301589e+003,4.566150e-001
3.303518e+003,4.569227e-001
3.305447e+003,4.573737e-001
3.307375e+003,4.578412e-001
3.309303e+003,4.578137e-001
3.311232e+003,4.575885e-001
3.313160e+003,4.575499e-001
3.315089e+003,4.576663e-001
3.317017e+003,4.578588e-001
3.318946e+003,4.582819e-001
3.320875e+003,4.586156e-001
3.322803e+003,4.589870e-001
3.324731e+003,4.593756e-001
3.326660e+003,4.594246e-001
3.328588e+003,4.592790e-001
3.330517e+003,4.593644e-001
3.332445e+003,4.597574e-001
3.334374e+003,4.603667e-001
3.336302e+003,4.608724e-001
3.338231e+003,4.611221e-001
3.340159e+003,4.612856e-001
3.342088e+003,4.614238e-001
3.344016e+003,4.612866e-001
3.345945e+003,4.614308e-001
3.347873e+003,4.618575e-001
3.349802e+003,4.621883e-001
3.351730e+003,4.623278e-001
3.353659e+003,4.626289e-001
3.355587e+003,4.629832e-001
3.357516e+003,4.632664e-001
3.359444e+003,4.635066e-001
3.361373e+003,4.636073e-001
3.363302e+003,4.638864e-001
3.365230e+003,4.643963e-001
3.367158e+003,4.646460e-001
3.369087e+003,4.647896e-001
3.371015e+003,4.649348e-001
3.372944e+003,4.653768e-001
3.374872e+003,4.657661e-001
3.376801e+003,4.658143e-001
3.378729e+003,4.658036e-001
3.380658e+003,4.658482e-001
3.382586e+003,4.662465e-001
3.384515e+003,4.669082e-001
3.386443e+003,4.670900e-001
3.388372e+003,4.673662e-001
3.390300e+003,4.679020e-001
3.392229e+003,4.681135e-001
3.394157e+003,4.680843e-001
3.396086e+003,4.681588e-001
3.398014e+003,4.683519e-001
3.399943e+003,4.685042e-001
3.401871e+003,4.686383e-001
3.403800e+003,4.689626e-001
3.405728e+003,4.692619e-001
3.407657e+003,4.695317e-001
3.409585e+003,4.696657e-001
3.411514e+003,4.697606e-001
3.413442e+003,4.698561e-001
3.415371e+003,4.699782e-001
3.417299e+003,4.703374e-001
3.419228e+003,4.710270e-001
3.421156e+003,4.712777e-001
3.423085e+003,4.711457e-001
3.425013e+003,4.713328e-001
3.426942e+003,4.716086e-001
3.428870e+003,4.717892e-001
3.430799e+003,4.717779e-001
3.432727e+003,4.719405e-001
3.434656e+003,4.723366e-001
3.436584e+003,4.725306e-001
3.438513e+003,4.725643e-001
3.440441e+003,4.726937e-001
3.442370e+003,4.727550e-001
3.444298e+003,4.729415e-001
3.446227e+003,4.733079e-001
3.448155e+003,4.728312e-001
3.450084e+003,4.726724e-001
3.452012e+003,4.727629e-001
3.453941e+003,4.729239e-001
3.455869e+003,4.731808e-001
3.457798e+003,4.734462e-001
3.459726e+003,4.735592e-001
3.461655e+003,4.735231e-001
3.463583e+003,4.736156e-001
3.465512e+003,4.738471e-001
3.467440e+003,4.738177e-001
3.469369e+003,4.737415e-001
3.471297e+003,4.736998e-001
3.473226e+003,4.737145e-001
3.475154e+003,4.738485e-001
3.477083e+003,4.739092e-001
3.479011e+003,4.741229e-001
3.480940e+003,4.742864e-001
3.482868e+003,4.739048e-001
3.484797e+003,4.739060e-001
3.486725e+003,4.742145e-001
3.488654e+003,4.740258e-001
3.490582e+003,4.740069e-001
3.492511e+003,4.741205e-001
3.494439e+003,4.740553e-001
3.496368e+003,4.738477e-001
3.498296e+003,4.738068e-001
3.500225e+003,4.745085e-001
3.502153e+003,4.750154e-001
3.504082e+003,4.741591e-001
3.506010e+003,4.737470e-001
3.507939e+003,4.742363e-001
3.509867e+003,4.741096e-001
3.511796e+003,4.738125e-001
3.513724e+003,4.734602e-001
3.515653e+003,4.733768e-001
3.517581e+003,4.736288e-001
3.519510e+003,4.737111e-001
3.521438e+003,4.744863e-001
3.523367e+003,4.748861e-001
3.525295e+003,4.746762e-001
3.527224e+003,4.743779e-001
3.529152e+003,4.735657e-001
3.531081e+003,4.731792e-001
3.533009e+003,4.732601e-001
3.534938e+003,4.736955e-001
3.536866e+003,4.735271e-001
3.538795e+003,4.734884e-001
3.540723e+003,4.738212e-001
3.542652e+003,4.746495e-001
3.544580e+003,4.750764e-001
3.546509e+003,4.742501e-001
3.548437e+003,4.734018e-001
3.550366e+003,4.736506e-001
3.552294e+003,4.735830e-001
3.554223e+003,4.729435e-001
3.556151e+003,4.728561e-001
3.558080e+003,4.731857e-001
3.560008e+003,4.734882e-001
3.561937e+003,4.737821e-001
3.563865e+003,4.748310e-001
3.565794e+003,4.760782e-001
3.567722e+003,4.741665e-001
3.569651e+003,4.725650e-001
3.571579e+003,4.723059e-001
3.573508e+003,4.725645e-001
3.575436e+003,4.726563e-001
3.577365e+003,4.727148e-001
3.579293e+003,4.725445e-001
3.581222e+003,4.723465e-001
3.583150e+003,4.729259e-001
3.585079e+003,4.744310e-001
3.587007e+003,4.751115e-001
3.588936e+003,4.730391e-001
3.590864e+003,4.725305e-001
3.592793e+003,4.730448e-001
3.594721e+003,4.732446e-001
3.596650e+003,4.733518e-001
3.598578e+003,4.736163e-001
3.600507e+003,4.727305e-001
3.602435e+003,4.717302e-001
3.604364e+003,4.721009e-001
3.606292e+003,4.732093e-001
3.608221e+003,4.733448e-001
3.610149e+003,4.729007e-001
3.612078e+003,4.737828e-001
3.614006e+003,4.732593e-001
3.615935e+003,4.728627e-001
3.617863e+003,4.742942e-001
3.619792e+003,4.736496e-001
3.621720e+003,4.718361e-001
3.623649e+003,4.719327e-001
3.625577e+003,4.733923e-001
3.627506e+003,4.753888e-001
3.629434e+003,4.731900e-001
3.631363e+003,4.715808e-001
3.633291e+003,4.708477e-001
3.635220e+003,4.701122e-001
3.637148e+003,4.702652e-001
3.639077e+003,4.700288e-001
3.641005e+003,4.701662e-001
3.642934e+003,4.703826e-001
3.644862e+003,4.719117e-001
3.646791e+003,4.756074e-001
3.648719e+003,4.778843e-001
3.650648e+003,4.722243e-001
3.652576e+003,4.695416e-001
3.654505e+003,4.706160e-001
3.656433e+003,4.704579e-001
3.658362e+003,4.694287e-001
3.660290e+003,4.688844e-001
3.662219e+003,4.683874e-001
3.664147e+003,4.683980e-001
3.666076e+003,4.694386e-001
3.668004e+003,4.718824e-001
3.669933e+003,4.724732e-001
3.671861e+003,4.713648e-001
3.673790e+003,4.736757e-001
3.675718e+003,4.726224e-001
3.677647e+003,4.708160e-001
3.679575e+003,4.698842e-001
3.681504e+003,4.690600e-001
3.683432e+003,4.693003e-001
3.685361e+003,4.707468e-001
3.687289e+003,4.733568e-001
3.689218e+003,4.742524e-001
3.691146e+003,4.715792e-001
3.693075e+003,4.701813e-001
3.695003e+003,4.704331e-001
3.696932e+003,4.700734e-001
3.698860e+003,4.704250e-001
3.700789e+003,4.710457e-001
3.702717e+003,4.702959e-001
3.704646e+003,4.705879e-001
3.706574e+003,4.718699e-001
3.708503e+003,4.739360e-001
3.710431e+003,4.752208e-001
3.712360e+003,4.717633e-001
3.714288e+003,4.697784e-001
3.716217e+003,4.700666e-001
3.718145e+003,4.708292e-001
3.720074e+003,4.716319e-001
3.722002e+003,4.722844e-001
3.723931e+003,4.727700e-001
3.725859e+003,4.728840e-001
3.727788e+003,4.721538e-001
3.729716e+003,4.734310e-001
3.731645e+003,4.756055e-001
3.733573e+003,4.776414e-001
3.735502e+003,4.775069e-001
3.737430e+003,4.741068e-001
3.739359e+003,4.732400e-001
3.741287e+003,4.737527e-001
3.743216e+003,4.751842e-001
3.745144e+003,4.740566e-001
3.747073e+003,4.751144e-001
3.749001e+003,4.776143e-001
3.750930e+003,4.773899e-001
3.752858e+003,4.730997e-001
3.754787e+003,4.720476e-001
3.756715e+003,4.723539e-001
3.758644e+003,4.724769e-001
3.760572e+003,4.710412e-001
3.762500e+003,4.710127e-001
3.764429e+003,4.716667e-001
3.766358e+003,4.715697e-001
3.768286e+003,4.719450e-001
3.770215e+003,4.710580e-001
3.772143e+003,4.702607e-001
3.774072e+003,4.704663e-001
3.776000e+003,4.711740e-001
3.777928e+003,4.723649e-001
3.779857e+003,4.719507e-001
3.781786e+003,4.718183e-001
3.783714e+003,4.722834e-001
3.785643e+003,4.715733e-001
3.787571e+003,4.709888e-001
3.789500e+003,4.709749e-001
3.791428e+003,4.712265e-001
3.793356e+003,4.721230e-001
3.795285e+003,4.732411e-001
3.797214e+003,4.736838e-001
3.799142e+003,4.750911e-001
3.801071e+003,4.757215e-001
3.802999e+003,4.733360e-001
3.804927e+003,4.740817e-001
3.806856e+003,4.738411e-001
3.808785e+003,4.721339e-001
3.810713e+003,4.719227e-001
3.812642e+003,4.731957e-001
3.814570e+003,4.754127e-001
3.816499e+003,4.756067e-001
3.818427e+003,4.764738e-001
3.820355e+003,4.774025e-001
3.822284e+003,4.744593e-001
3.824213e+003,4.743870e-001
3.826141e+003,4.744065e-001
3.828070e+003,4.739928e-001
3.829998e+003,4.744423e-001
3.831927e+003,4.748931e-001
3.833855e+003,4.759414e-001
3.835783e+003,4.778479e-001
3.837712e+003,4.791863e-001
3.839641e+003,4.780809e-001
3.841569e+003,4.764929e-001
3.843498e+003,4.752715e-001
3.845426e+003,4.741814e-001
3.847354e+003,4.749775e-001
3.849283e+003,4.767789e-001
3.851211e+003,4.801186e-001
3.853140e+003,4.813074e-001
3.855069e+003,4.768353e-001
3.856997e+003,4.753023e-001
3.858926e+003,4.754840e-001
3.860854e+003,4.771062e-001
3.862782e+003,4.782501e-001
3.864711e+003,4.771000e-001
3.866639e+003,4.765363e-001
3.868568e+003,4.780385e-001
3.870497e+003,4.776872e-001
3.872425e+003,4.776338e-001
3.874354e+003,4.768244e-001
3.876282e+003,4.761112e-001
3.878210e+003,4.770333e-001
3.880139e+003,4.774414e-001
3.882067e+003,4.769527e-001
3.883996e+003,4.778227e-001
3.885925e+003,4.767002e-001
3.887853e+003,4.762826e-001
3.889781e+003,4.777334e-001
3.891710e+003,4.777404e-001
3.893638e+003,4.766201e-001
3.895567e+003,4.768856e-001
3.897495e+003,4.784839e-001
3.899424e+003,4.793918e-001
3.901353e+003,4.797025e-001
3.903281e+003,4.797528e-001
3.905209e+003,4.779603e-001
3.907138e+003,4.767037e-001
3.909066e+003,4.764290e-001
3.910995e+003,4.764023e-001
3.912924e+003,4.770507e-001
3.914852e+003,4.782547e-001
3.916781e+003,4.784409e-001
3.918709e+003,4.778281e-001
3.920637e+003,4.772606e-001
3.922566e+003,4.777542e-001
3.924494e+003,4.780557e-001
3.926423e+003,4.776819e-001
3.928352e+003,4.785246e-001
3.930280e+003,4.793275e-001
3.932208e+003,4.787720e-001
3.934137e+003,4.776061e-001
3.936065e+003,4.773632e-001
3.937994e+003,4.776551e-001
3.939922e+003,4.782684e-001
3.941851e+003,4.787300e-001
3.943780e+003,4.781668e-001
3.945708e+003,4.782583e-001
3.947636e+003,4.788528e-001
3.949565e+003,4.788416e-001
3.951493e+003,4.786546e-001
3.953422e+003,4.785037e-001
3.955350e+003,4.783126e-001
3.957279e+003,4.783088e-001
3.959208e+003,4.784958e-001
3.961136e+003,4.787867e-001
3.963064e+003,4.787730e-001
3.964993e+003,4.785309e-001
3.966921e+003,4.786344e-001
3.968850e+003,4.790558e-001
3.970778e+003,4.792716e-001
3.972707e+003,4.793830e-001
3.974635e+003,4.793405e-001
3.976564e+003,4.791074e-001
3.978492e+003,4.792448e-001
3.980421e+003,4.795740e-001
3.982349e+003,4.797017e-001
3.984278e+003,4.798198e-001
3.986206e+003,4.796668e-001
3.988135e+003,4.795864e-001
3.990063e+003,4.799018e-001
3.991992e+003,4.802445e-001
3.993920e+003,4.804998e-001
3.995849e+003,4.804313e-001
3.997777e+003,4.801471e-001
3.999706e+003,4.801286e-001
