3.991992e+002,9.660332e-001
4.011277e+002,9.974743e-001
4.030562e+002,1.023963e+000
4.049847e+002,1.054091e+000
4.069132e+002,1.081111e+000
4.088417e+002,1.110551e+000
4.107702e+002,1.135695e+000
4.126987e+002,1.155752e+000
4.146272e+002,1.173878e+000
4.165557e+002,1.185327e+000
4.184842e+002,1.226051e+000
4.204127e+002,1.266945e+000
4.223412e+002,1.274432e+000
4.242697e+002,1.273784e+000
4.261982e+002,1.267892e+000
4.281267e+002,1.266505e+000
4.300552e+002,1.256244e+000
4.319837e+002,1.236346e+000
4.339122e+002,1.222834e+000
4.358407e+002,1.230429e+000
4.377692e+002,1.241262e+000
4.396977e+002,1.243486e+000
4.416262e+002,1.254435e+000
4.435547e+002,1.257212e+000
4.454832e+002,1.247972e+000
4.474117e+002,1.252467e+000
4.493401e+002,1.259192e+000
4.512686e+002,1.274333e+000
4.531971e+002,1.299819e+000
4.551256e+002,1.325354e+000
4.570541e+002,1.361606e+000
4.589826e+002,1.382374e+000
4.609111e+002,1.382952e+000
4.628396e+002,1.407262e+000
4.647681e+002,1.425771e+000
4.666966e+002,1.408231e+000
4.686251e+002,1.381128e+000
4.705536e+002,1.369023e+000
4.724821e+002,1.344443e+000
4.744106e+002,1.305424e+000
4.763391e+002,1.260047e+000
4.782676e+002,1.217885e+000
4.801961e+002,1.177399e+000
4.821246e+002,1.142069e+000
4.840531e+002,1.106302e+000
4.859816e+002,1.075157e+000
4.879101e+002,1.043480e+000
4.898386e+002,1.008168e+000
4.917671e+002,9.682702e-001
4.936956e+002,9.299995e-001
4.956241e+002,8.959707e-001
4.975526e+002,8.643535e-001
4.994811e+002,8.339704e-001
5.014096e+002,8.072678e-001
5.033381e+002,7.890381e-001
5.052666e+002,7.762553e-001
5.071951e+002,7.659690e-001
5.091236e+002,7.569273e-001
5.110521e+002,7.501353e-001
5.129806e+002,7.437013e-001
5.149091e+002,7.373713e-001
5.168376e+002,7.310111e-001
5.187661e+002,7.256171e-001
5.206946e+002,7.171264e-001
5.226231e+002,7.064828e-001
5.245516e+002,6.964347e-001
5.264801e+002,6.870415e-001
5.284086e+002,6.788211e-001
5.303371e+002,6.720411e-001
5.322656e+002,6.655616e-001
5.341941e+002,6.612871e-001
5.361226e+002,6.578789e-001
5.380511e+002,6.555834e-001
5.399796e+002,6.555748e-001
5.419081e+002,6.592487e-001
5.438365e+002,6.675652e-001
5.457651e+002,6.848319e-001
5.476936e+002,7.087811e-001
5.496221e+002,7.407294e-001
5.515506e+002,7.785430e-001
5.534791e+002,8.158473e-001
5.554076e+002,8.462946e-001
5.573361e+002,8.646160e-001
5.592646e+002,8.653282e-001
5.611931e+002,8.494918e-001
5.631216e+002,8.225375e-001
5.650500e+002,7.921823e-001
5.669786e+002,7.605830e-001
5.689070e+002,7.328608e-001
5.708356e+002,7.091513e-001
5.727640e+002,6.899231e-001
5.746926e+002,6.729389e-001
5.766210e+002,6.577723e-001
5.785496e+002,6.474755e-001
5.804780e+002,6.426583e-001
5.824066e+002,6.420985e-001
5.843350e+002,6.458979e-001
5.862635e+002,6.523665e-001
5.881920e+002,6.633338e-001
5.901205e+002,6.802031e-001
5.920490e+002,7.055907e-001
5.939775e+002,7.358611e-001
5.959060e+002,7.677730e-001
5.978345e+002,7.944384e-001
5.997631e+002,8.080059e-001
6.016915e+002,8.057069e-001
6.036201e+002,7.932752e-001
6.055485e+002,7.752774e-001
6.074771e+002,7.584434e-001
6.094055e+002,7.437329e-001
6.113340e+002,7.347472e-001
6.132625e+002,7.320979e-001
6.151910e+002,7.335594e-001
6.171195e+002,7.371002e-001
6.190480e+002,7.417462e-001
6.209765e+002,7.444766e-001
6.229050e+002,7.428473e-001
6.248335e+002,7.335793e-001
6.267620e+002,7.192575e-001
6.286905e+002,7.049885e-001
6.306190e+002,6.960295e-001
6.325475e+002,6.927542e-001
6.344760e+002,6.951776e-001
6.364045e+002,7.011459e-001
6.383330e+002,7.105954e-001
6.402615e+002,7.216592e-001
6.421900e+002,7.360130e-001
6.441185e+002,7.519575e-001
6.460470e+002,7.708206e-001
6.479755e+002,7.910163e-001
6.499040e+002,8.156437e-001
6.518325e+002,8.414569e-001
6.537610e+002,8.706843e-001
6.556895e+002,9.006924e-001
6.576180e+002,9.328103e-001
6.595465e+002,9.644303e-001
6.614750e+002,9.955531e-001
6.634035e+002,1.019881e+000
6.653320e+002,1.037763e+000
6.672605e+002,1.055401e+000
6.691890e+002,1.075808e+000
6.711175e+002,1.075975e+000
6.730460e+002,1.079977e+000
6.749745e+002,1.083960e+000
6.769030e+002,1.086855e+000
6.788315e+002,1.089121e+000
6.807599e+002,1.090623e+000
6.826885e+002,1.093019e+000
6.846169e+002,1.096297e+000
6.865455e+002,1.095506e+000
6.884739e+002,1.091007e+000
6.904025e+002,1.082895e+000
6.923309e+002,1.074898e+000
6.942595e+002,1.066467e+000
6.961880e+002,1.060179e+000
6.981165e+002,1.049740e+000
7.000450e+002,1.032776e+000
7.019734e+002,1.008243e+000
7.039020e+002,9.802333e-001
7.058304e+002,9.521906e-001
7.077590e+002,9.273884e-001
7.096874e+002,9.081618e-001
7.116160e+002,8.948464e-001
7.135444e+002,8.860696e-001
7.154730e+002,8.796780e-001
7.174014e+002,8.721027e-001
7.193300e+002,8.597016e-001
7.212584e+002,8.414350e-001
7.231870e+002,8.218217e-001
7.251154e+002,8.030294e-001
7.270439e+002,7.857647e-001
7.289724e+002,7.701004e-001
7.309009e+002,7.557935e-001
7.328294e+002,7.427794e-001
7.347579e+002,7.294688e-001
7.366864e+002,7.155429e-001
7.386149e+002,7.020935e-001
7.405434e+002,6.897371e-001
7.424719e+002,6.787465e-001
7.444004e+002,6.692345e-001
7.463289e+002,6.610062e-001
7.482574e+002,6.540570e-001
7.501859e+002,6.465564e-001
7.521144e+002,6.388255e-001
7.540429e+002,6.308491e-001
7.559714e+002,6.230938e-001
7.578999e+002,6.165133e-001
7.598284e+002,6.118237e-001
7.617569e+002,6.082672e-001
7.636854e+002,6.055913e-001
7.656139e+002,6.027610e-001
7.675424e+002,5.990292e-001
7.694709e+002,5.942162e-001
7.713994e+002,5.897751e-001
7.733279e+002,5.862560e-001
7.752564e+002,5.852606e-001
7.771849e+002,5.862015e-001
7.791134e+002,5.882684e-001
7.810419e+002,5.903886e-001
7.829704e+002,5.928647e-001
7.848989e+002,5.949423e-001
7.868274e+002,5.963813e-001
7.887559e+002,5.987006e-001
7.906844e+002,6.036159e-001
7.926129e+002,6.103727e-001
7.945414e+002,6.190762e-001
7.964699e+002,6.288128e-001
7.983984e+002,6.383922e-001
8.003269e+002,6.471453e-001
8.022554e+002,6.553167e-001
8.041839e+002,6.635609e-001
8.061124e+002,6.734394e-001
8.080409e+002,6.852254e-001
8.099694e+002,6.981580e-001
8.118979e+002,7.111694e-001
8.138264e+002,7.233096e-001
8.157549e+002,7.337202e-001
8.176833e+002,7.426336e-001
8.196119e+002,7.516472e-001
8.215403e+002,7.615185e-001
8.234689e+002,7.721448e-001
8.253973e+002,7.828604e-001
8.273259e+002,7.935705e-001
8.292543e+002,8.037211e-001
8.311829e+002,8.125566e-001
8.331113e+002,8.195923e-001
8.350399e+002,8.254436e-001
8.369683e+002,8.309197e-001
8.388969e+002,8.367009e-001
8.408253e+002,8.436388e-001
8.427538e+002,8.517316e-001
8.446824e+002,8.604863e-001
8.466108e+002,8.691995e-001
8.485394e+002,8.767188e-001
8.504678e+002,8.837029e-001
8.523964e+002,8.899097e-001
8.543248e+002,8.961575e-001
8.562534e+002,9.034981e-001
8.581818e+002,9.110935e-001
8.601104e+002,9.187372e-001
8.620388e+002,9.282249e-001
8.639673e+002,9.377611e-001
8.658958e+002,9.470571e-001
8.678243e+002,9.565455e-001
8.697528e+002,9.671294e-001
8.716813e+002,9.802554e-001
8.736098e+002,9.953457e-001
8.755383e+002,1.011539e+000
8.774668e+002,1.029022e+000
8.793953e+002,1.047781e+000
8.813238e+002,1.066782e+000
8.832523e+002,1.084867e+000
8.851808e+002,1.103781e+000
8.871093e+002,1.123518e+000
8.890378e+002,1.144531e+000
8.909663e+002,1.164942e+000
8.928948e+002,1.185948e+000
8.948233e+002,1.205851e+000
8.967518e+002,1.224640e+000
8.986803e+002,1.240360e+000
9.006088e+002,1.255581e+000
9.025373e+002,1.268248e+000
9.044658e+002,1.281007e+000
9.063943e+002,1.295364e+000
9.083228e+002,1.311132e+000
9.102513e+002,1.322638e+000
9.121798e+002,1.332109e+000
9.141083e+002,1.339271e+000
9.160368e+002,1.346321e+000
9.179653e+002,1.349025e+000
9.198938e+002,1.353861e+000
9.218223e+002,1.360808e+000
9.237508e+002,1.368405e+000
9.256793e+002,1.378278e+000
9.276078e+002,1.395051e+000
9.295363e+002,1.416142e+000
9.314648e+002,1.439959e+000
9.333932e+002,1.461546e+000
9.353218e+002,1.485147e+000
9.372502e+002,1.504207e+000
9.391788e+002,1.524742e+000
9.411072e+002,1.543715e+000
9.430358e+002,1.558630e+000
9.449643e+002,1.569168e+000
9.468928e+002,1.579364e+000
9.488213e+002,1.587133e+000
9.507498e+002,1.595156e+000
9.526783e+002,1.602269e+000
9.546068e+002,1.614383e+000
9.565353e+002,1.622899e+000
9.584637e+002,1.629262e+000
9.603923e+002,1.634709e+000
9.623207e+002,1.641757e+000
9.642493e+002,1.644359e+000
9.661777e+002,1.647231e+000
9.681063e+002,1.644466e+000
9.700347e+002,1.642360e+000
9.719633e+002,1.638745e+000
9.738917e+002,1.636087e+000
9.758203e+002,1.629463e+000
9.777487e+002,1.624316e+000
9.796772e+002,1.618645e+000
9.816057e+002,1.614353e+000
9.835342e+002,1.610638e+000
9.854627e+002,1.609432e+000
9.873912e+002,1.604238e+000
9.893197e+002,1.601544e+000
9.912482e+002,1.599328e+000
9.931768e+002,1.601411e+000
9.951052e+002,1.602520e+000
9.970338e+002,1.607828e+000
9.989622e+002,1.611563e+000
1.000891e+003,1.615722e+000
1.002819e+003,1.617937e+000
1.004748e+003,1.620878e+000
1.006676e+003,1.619153e+000
1.008605e+003,1.617858e+000
1.010533e+003,1.609818e+000
1.012462e+003,1.601288e+000
1.014390e+003,1.591384e+000
1.016319e+003,1.583423e+000
1.018247e+003,1.571852e+000
1.020176e+003,1.563139e+000
1.022104e+003,1.554296e+000
1.024033e+003,1.545532e+000
1.025961e+003,1.534119e+000
1.027890e+003,1.525151e+000
1.029818e+003,1.516696e+000
1.031747e+003,1.508766e+000
1.033675e+003,1.499422e+000
1.035604e+003,1.490147e+000
1.037532e+003,1.476404e+000
1.039461e+003,1.465041e+000
1.041389e+003,1.453166e+000
1.043318e+003,1.442840e+000
1.045246e+003,1.429597e+000
1.047175e+003,1.416729e+000
1.049103e+003,1.401857e+000
1.051032e+003,1.387725e+000
1.052960e+003,1.373055e+000
1.054889e+003,1.360671e+000
1.056817e+003,1.347798e+000
1.058746e+003,1.335607e+000
1.060674e+003,1.322675e+000
1.062603e+003,1.313030e+000
1.064531e+003,1.304337e+000
1.066460e+003,1.298156e+000
1.068388e+003,1.292258e+000
1.070317e+003,1.286454e+000
1.072245e+003,1.279856e+000
1.074174e+003,1.275702e+000
1.076102e+003,1.269776e+000
1.078031e+003,1.264533e+000
1.079959e+003,1.257635e+000
1.081888e+003,1.248938e+000
1.083816e+003,1.238071e+000
1.085745e+003,1.229984e+000
1.087673e+003,1.221344e+000
1.089602e+003,1.213050e+000
1.091530e+003,1.204436e+000
1.093459e+003,1.196913e+000
1.095387e+003,1.189407e+000
1.097316e+003,1.183536e+000
1.099244e+003,1.177938e+000
1.101173e+003,1.173534e+000
1.103101e+003,1.169819e+000
1.105030e+003,1.168591e+000
1.106958e+003,1.168554e+000
1.108887e+003,1.172156e+000
1.110815e+003,1.177370e+000
1.112744e+003,1.183892e+000
1.114672e+003,1.190389e+000
1.116601e+003,1.197885e+000
1.118529e+003,1.204007e+000
1.120458e+003,1.209554e+000
1.122386e+003,1.212661e+000
1.124315e+003,1.215167e+000
1.126243e+003,1.215894e+000
1.128172e+003,1.215541e+000
1.130100e+003,1.212055e+000
1.132029e+003,1.207849e+000
1.133957e+003,1.203376e+000
1.135886e+003,1.199666e+000
1.137814e+003,1.193952e+000
1.139743e+003,1.188333e+000
1.141671e+003,1.182450e+000
1.143600e+003,1.178249e+000
1.145528e+003,1.173471e+000
1.147457e+003,1.168955e+000
1.149385e+003,1.163865e+000
1.151314e+003,1.159054e+000
1.153242e+003,1.153354e+000
1.155171e+003,1.148721e+000
1.157099e+003,1.143524e+000
1.159028e+003,1.137940e+000
1.160956e+003,1.130820e+000
1.162885e+003,1.124306e+000
1.164813e+003,1.116823e+000
1.166742e+003,1.109518e+000
1.168670e+003,1.101145e+000
1.170599e+003,1.092913e+000
1.172527e+003,1.084694e+000
1.174456e+003,1.076912e+000
1.176384e+003,1.068739e+000
1.178313e+003,1.061232e+000
1.180241e+003,1.053268e+000
1.182170e+003,1.045815e+000
1.184098e+003,1.038097e+000
1.186027e+003,1.031302e+000
1.187955e+003,1.024009e+000
1.189884e+003,1.017673e+000
1.191812e+003,1.011840e+000
1.193741e+003,1.006758e+000
1.195669e+003,1.001086e+000
1.197598e+003,9.957668e-001
1.199526e+003,9.901074e-001
1.201455e+003,9.845446e-001
1.203383e+003,9.792802e-001
1.205312e+003,9.747242e-001
1.207240e+003,9.701870e-001
1.209169e+003,9.662278e-001
1.211097e+003,9.619331e-001
1.213026e+003,9.579383e-001
1.214954e+003,9.535090e-001
1.216883e+003,9.495203e-001
1.218811e+003,9.450954e-001
1.220740e+003,9.410648e-001
1.222668e+003,9.374946e-001
1.224597e+003,9.344793e-001
1.226525e+003,9.312145e-001
1.228453e+003,9.276896e-001
1.230382e+003,9.238361e-001
1.232311e+003,9.206236e-001
1.234239e+003,9.173042e-001
1.236167e+003,9.137973e-001
1.238096e+003,9.102272e-001
1.240025e+003,9.074269e-001
1.241953e+003,9.045228e-001
1.243882e+003,9.021304e-001
1.245810e+003,8.992153e-001
1.247739e+003,8.964747e-001
1.249667e+003,8.931175e-001
1.251596e+003,8.900682e-001
1.253524e+003,8.869682e-001
1.255453e+003,8.842397e-001
1.257381e+003,8.820534e-001
1.259310e+003,8.800362e-001
1.261238e+003,8.777364e-001
1.263167e+003,8.755133e-001
1.265095e+003,8.729192e-001
1.267024e+003,8.702938e-001
1.268952e+003,8.673261e-001
1.270880e+003,8.648453e-001
1.272809e+003,8.622218e-001
1.274738e+003,8.601973e-001
1.276666e+003,8.584017e-001
1.278594e+003,8.565894e-001
1.280523e+003,8.541618e-001
1.282452e+003,8.518717e-001
1.284380e+003,8.496886e-001
1.286308e+003,8.474866e-001
1.288237e+003,8.450201e-001
1.290166e+003,8.429112e-001
1.292094e+003,8.413070e-001
1.294022e+003,8.399595e-001
1.295951e+003,8.383454e-001
1.297880e+003,8.365585e-001
1.299808e+003,8.342659e-001
1.301736e+003,8.320512e-001
1.303665e+003,8.298678e-001
1.305594e+003,8.280158e-001
1.307522e+003,8.263405e-001
1.309450e+003,8.251572e-001
1.311379e+003,8.239858e-001
1.313307e+003,8.225476e-001
1.315236e+003,8.206528e-001
1.317164e+003,8.189163e-001
1.319093e+003,8.165577e-001
1.321021e+003,8.140791e-001
1.322950e+003,8.123325e-001
1.324878e+003,8.111725e-001
1.326807e+003,8.099585e-001
1.328735e+003,8.089076e-001
1.330664e+003,8.073399e-001
1.332592e+003,8.055976e-001
1.334521e+003,8.041433e-001
1.336449e+003,8.029161e-001
1.338378e+003,8.014451e-001
1.340307e+003,7.995564e-001
1.342235e+003,7.978072e-001
1.344163e+003,7.967582e-001
1.346092e+003,7.953235e-001
1.348021e+003,7.940446e-001
1.349949e+003,7.923690e-001
1.351877e+003,7.905740e-001
1.353806e+003,7.889941e-001
1.355734e+003,7.875408e-001
1.357663e+003,7.861059e-001
1.359591e+003,7.856724e-001
1.361520e+003,7.853128e-001
1.363448e+003,7.834398e-001
1.365377e+003,7.813494e-001
1.367305e+003,7.802103e-001
1.369234e+003,7.786108e-001
1.371162e+003,7.771474e-001
1.373091e+003,7.762486e-001
1.375019e+003,7.750303e-001
1.376948e+003,7.738677e-001
1.378876e+003,7.728652e-001
1.380805e+003,7.713024e-001
1.382733e+003,7.697368e-001
1.384662e+003,7.682430e-001
1.386590e+003,7.671836e-001
1.388519e+003,7.655117e-001
1.390447e+003,7.644036e-001
1.392376e+003,7.642217e-001
1.394304e+003,7.639616e-001
1.396233e+003,7.624848e-001
1.398161e+003,7.616395e-001
1.400090e+003,7.594522e-001
1.402018e+003,7.576789e-001
1.403947e+003,7.566109e-001
1.405875e+003,7.555740e-001
1.407804e+003,7.545025e-001
1.409732e+003,7.539681e-001
1.411661e+003,7.530595e-001
1.413589e+003,7.519941e-001
1.415518e+003,7.510930e-001
1.417446e+003,7.507443e-001
1.419375e+003,7.484745e-001
1.421303e+003,7.473024e-001
1.423232e+003,7.467890e-001
1.425160e+003,7.452447e-001
1.427089e+003,7.444202e-001
1.429017e+003,7.439567e-001
1.430946e+003,7.423215e-001
1.432874e+003,7.410873e-001
1.434803e+003,7.404068e-001
1.436731e+003,7.384725e-001
1.438660e+003,7.363812e-001
1.440588e+003,7.354942e-001
1.442517e+003,7.343148e-001
1.444445e+003,7.335812e-001
1.446374e+003,7.329404e-001
1.448302e+003,7.315739e-001
1.450231e+003,7.299792e-001
1.452159e+003,7.288629e-001
1.454088e+003,7.284997e-001
1.456016e+003,7.295421e-001
1.457945e+003,7.272565e-001
1.459873e+003,7.248591e-001
1.461802e+003,7.239229e-001
1.463730e+003,7.236658e-001
1.465659e+003,7.215154e-001
1.467587e+003,7.197553e-001
1.469516e+003,7.189706e-001
1.471444e+003,7.193383e-001
1.473373e+003,7.179351e-001
1.475301e+003,7.162111e-001
1.477230e+003,7.143760e-001
1.479158e+003,7.134814e-001
1.481087e+003,7.119367e-001
1.483015e+003,7.101229e-001
1.484944e+003,7.094525e-001
1.486872e+003,7.093362e-001
1.488801e+003,7.086714e-001
1.490729e+003,7.065542e-001
1.492658e+003,7.052835e-001
1.494586e+003,7.054102e-001
1.496515e+003,7.046293e-001
1.498443e+003,7.027149e-001
1.500372e+003,7.007312e-001
1.502300e+003,6.997129e-001
1.504229e+003,6.998562e-001
1.506157e+003,7.013180e-001
1.508086e+003,6.984197e-001
1.510014e+003,6.966995e-001
1.511943e+003,6.949143e-001
1.513871e+003,6.942049e-001
1.515800e+003,6.936996e-001
1.517728e+003,6.914237e-001
1.519657e+003,6.909924e-001
1.521585e+003,6.907203e-001
1.523514e+003,6.881573e-001
1.525442e+003,6.875588e-001
1.527371e+003,6.858460e-001
1.529299e+003,6.842138e-001
1.531228e+003,6.835678e-001
1.533156e+003,6.825587e-001
1.535085e+003,6.798658e-001
1.537013e+003,6.802332e-001
1.538942e+003,6.822090e-001
1.540870e+003,6.816801e-001
1.542799e+003,6.781160e-001
1.544727e+003,6.751700e-001
1.546656e+003,6.727980e-001
1.548584e+003,6.722031e-001
1.550513e+003,6.704566e-001
1.552441e+003,6.697590e-001
1.554370e+003,6.693474e-001
1.556298e+003,6.694036e-001
1.558227e+003,6.705789e-001
1.560155e+003,6.648495e-001
1.562084e+003,6.636885e-001
1.564012e+003,6.629980e-001
1.565941e+003,6.614943e-001
1.567869e+003,6.610754e-001
1.569798e+003,6.593307e-001
1.571726e+003,6.573024e-001
1.573655e+003,6.575167e-001
1.575583e+003,6.579934e-001
1.577512e+003,6.552415e-001
1.579440e+003,6.536850e-001
1.581369e+003,6.524496e-001
1.583297e+003,6.511988e-001
1.585226e+003,6.499153e-001
1.587154e+003,6.489890e-001
1.589083e+003,6.481674e-001
1.591011e+003,6.476021e-001
1.592940e+003,6.472149e-001
1.594868e+003,6.464605e-001
1.596797e+003,6.450281e-001
1.598725e+003,6.440676e-001
1.600654e+003,6.431957e-001
1.602582e+003,6.420186e-001
1.604511e+003,6.407911e-001
1.606439e+003,6.404071e-001
1.608368e+003,6.398554e-001
1.610296e+003,6.389900e-001
1.612225e+003,6.382254e-001
1.614153e+003,6.383911e-001
1.616082e+003,6.381552e-001
1.618010e+003,6.355823e-001
1.619939e+003,6.347263e-001
1.621867e+003,6.349942e-001
1.623796e+003,6.341142e-001
1.625724e+003,6.333811e-001
1.627653e+003,6.325127e-001
1.629581e+003,6.311309e-001
1.631510e+003,6.304157e-001
1.633438e+003,6.305498e-001
1.635367e+003,6.304422e-001
1.637295e+003,6.275162e-001
1.639224e+003,6.261673e-001
1.641152e+003,6.253926e-001
1.643081e+003,6.251376e-001
1.645009e+003,6.259387e-001
1.646938e+003,6.251933e-001
1.648866e+003,6.223133e-001
1.650795e+003,6.223120e-001
1.652723e+003,6.219673e-001
1.654652e+003,6.177422e-001
1.656580e+003,6.166826e-001
1.658509e+003,6.156286e-001
1.660437e+003,6.153663e-001
1.662366e+003,6.144767e-001
1.664294e+003,6.123216e-001
1.666223e+003,6.118183e-001
1.668151e+003,6.122720e-001
1.670080e+003,6.107578e-001
1.672008e+003,6.087250e-001
1.673937e+003,6.080903e-001
1.675865e+003,6.061886e-001
1.677794e+003,6.050908e-001
1.679722e+003,6.049355e-001
1.681651e+003,6.051437e-001
1.683579e+003,6.050195e-001
1.685508e+003,6.006383e-001
1.687436e+003,5.999933e-001
1.689365e+003,5.985940e-001
1.691293e+003,5.969552e-001
1.693222e+003,5.968195e-001
1.695150e+003,5.971547e-001
1.697079e+003,5.959266e-001
1.699007e+003,5.954994e-001
1.700936e+003,5.917559e-001
1.702864e+003,5.911419e-001
1.704793e+003,5.906750e-001
1.706721e+003,5.884692e-001
1.708650e+003,5.870888e-001
1.710578e+003,5.860890e-001
1.712507e+003,5.855898e-001
1.714435e+003,5.860990e-001
1.716364e+003,5.856111e-001
1.718292e+003,5.821054e-001
1.720221e+003,5.800447e-001
1.722149e+003,5.795566e-001
1.724078e+003,5.781683e-001
1.726006e+003,5.770463e-001
1.727935e+003,5.765949e-001
1.729863e+003,5.763218e-001
1.731792e+003,5.763335e-001
1.733720e+003,5.755126e-001
1.735649e+003,5.720997e-001
1.737577e+003,5.720811e-001
1.739506e+003,5.713068e-001
1.741434e+003,5.701548e-001
1.743363e+003,5.691565e-001
1.745291e+003,5.683491e-001
1.747220e+003,5.680872e-001
1.749148e+003,5.673006e-001
1.751077e+003,5.648059e-001
1.753005e+003,5.629395e-001
1.754934e+003,5.625479e-001
1.756862e+003,5.617071e-001
1.758791e+003,5.606363e-001
1.760719e+003,5.602286e-001
1.762648e+003,5.583457e-001
1.764576e+003,5.572829e-001
1.766505e+003,5.569310e-001
1.768433e+003,5.562787e-001
1.770362e+003,5.562599e-001
1.772290e+003,5.552692e-001
1.774219e+003,5.533326e-001
1.776147e+003,5.522974e-001
1.778076e+003,5.514120e-001
1.780004e+003,5.507137e-001
1.781933e+003,5.492996e-001
1.783861e+003,5.485570e-001
1.785790e+003,5.475247e-001
1.787718e+003,5.472103e-001
1.789647e+003,5.474032e-001
1.791575e+003,5.469428e-001
1.793504e+003,5.450380e-001
1.795432e+003,5.443026e-001
1.797361e+003,5.433267e-001
1.799289e+003,5.428023e-001
1.801218e+003,5.417054e-001
1.803146e+003,5.406361e-001
1.805075e+003,5.398485e-001
1.807003e+003,5.394115e-001
1.808932e+003,5.387473e-001
1.810860e+003,5.377631e-001
1.812789e+003,5.364652e-001
1.814717e+003,5.357726e-001
1.816646e+003,5.349740e-001
1.818574e+003,5.342991e-001
1.820503e+003,5.337505e-001
1.822431e+003,5.336764e-001
1.824360e+003,5.331435e-001
1.826288e+003,5.322071e-001
1.828217e+003,5.322043e-001
1.830145e+003,5.309911e-001
1.832074e+003,5.294265e-001
1.834002e+003,5.291305e-001
1.835931e+003,5.287391e-001
1.837859e+003,5.280536e-001
1.839788e+003,5.273010e-001
1.841716e+003,5.275393e-001
1.843645e+003,5.271388e-001
1.845573e+003,5.256479e-001
1.847502e+003,5.247075e-001
1.849430e+003,5.238671e-001
1.851359e+003,5.232162e-001
1.853287e+003,5.229372e-001
1.855216e+003,5.224771e-001
1.857144e+003,5.220690e-001
1.859073e+003,5.213782e-001
1.861001e+003,5.207317e-001
1.862930e+003,5.201214e-001
1.864858e+003,5.202016e-001
1.866786e+003,5.205560e-001
1.868715e+003,5.199367e-001
1.870644e+003,5.185229e-001
1.872572e+003,5.181252e-001
1.874500e+003,5.176085e-001
1.876429e+003,5.169885e-001
1.878358e+003,5.161974e-001
1.880286e+003,5.157176e-001
1.882215e+003,5.154417e-001
1.884143e+003,5.153512e-001
1.886072e+003,5.151705e-001
1.888000e+003,5.153317e-001
1.889929e+003,5.146535e-001
1.891857e+003,5.141239e-001
1.893786e+003,5.138895e-001
1.895714e+003,5.131888e-001
1.897643e+003,5.124261e-001
1.899571e+003,5.122579e-001
1.901500e+003,5.122032e-001
1.903428e+003,5.122670e-001
1.905357e+003,5.121648e-001
1.907285e+003,5.121427e-001
1.909214e+003,5.116088e-001
1.911142e+003,5.108207e-001
1.913071e+003,5.102276e-001
1.914999e+003,5.101581e-001
1.916927e+003,5.103149e-001
1.918856e+003,5.101470e-001
1.920785e+003,5.102896e-001
1.922713e+003,5.102844e-001
1.924641e+003,5.095294e-001
1.926570e+003,5.091746e-001
1.928499e+003,5.086166e-001
1.930427e+003,5.082301e-001
1.932355e+003,5.079632e-001
1.934284e+003,5.079381e-001
1.936213e+003,5.079718e-001
1.938141e+003,5.079969e-001
1.940069e+003,5.081303e-001
1.941998e+003,5.081406e-001
1.943927e+003,5.073706e-001
1.945855e+003,5.069647e-001
1.947783e+003,5.064856e-001
1.949712e+003,5.064656e-001
1.951641e+003,5.065161e-001
1.953569e+003,5.067398e-001
1.955497e+003,5.065845e-001
1.957426e+003,5.065256e-001
1.959354e+003,5.063511e-001
1.961283e+003,5.061201e-001
1.963211e+003,5.057420e-001
1.965140e+003,5.059170e-001
1.967068e+003,5.059552e-001
1.968997e+003,5.059475e-001
1.970925e+003,5.059068e-001
1.972854e+003,5.059615e-001
1.974782e+003,5.058155e-001
1.976711e+003,5.055550e-001
1.978639e+003,5.052748e-001
1.980568e+003,5.052544e-001
1.982496e+003,5.050891e-001
1.984425e+003,5.052831e-001
1.986354e+003,5.056725e-001
1.988282e+003,5.059679e-001
1.990210e+003,5.061591e-001
1.992139e+003,5.061609e-001
1.994068e+003,5.057281e-001
1.995996e+003,5.056601e-001
1.997924e+003,5.055362e-001
1.999853e+003,5.056247e-001
2.001781e+003,5.057828e-001
2.003710e+003,5.061779e-001
2.005638e+003,5.064199e-001
2.007567e+003,5.066857e-001
2.009495e+003,5.066012e-001
2.011424e+003,5.065167e-001
2.013352e+003,5.064711e-001
2.015281e+003,5.066977e-001
2.017209e+003,5.068960e-001
2.019138e+003,5.072591e-001
2.021066e+003,5.074794e-001
2.022995e+003,5.077929e-001
2.024923e+003,5.078895e-001
2.026852e+003,5.080522e-001
2.028780e+003,5.079834e-001
2.030709e+003,5.080664e-001
2.032637e+003,5.081739e-001
2.034566e+003,5.085310e-001
2.036494e+003,5.089974e-001
2.038423e+003,5.094237e-001
2.040351e+003,5.095706e-001
2.042280e+003,5.097954e-001
2.044208e+003,5.098260e-001
2.046137e+003,5.099825e-001
2.048065e+003,5.101411e-001
2.049994e+003,5.104765e-001
2.051922e+003,5.108237e-001
2.053851e+003,5.112790e-001
2.055779e+003,5.116094e-001
2.057708e+003,5.119677e-001
2.059636e+003,5.121320e-001
2.061565e+003,5.122388e-001
2.063493e+003,5.124588e-001
2.065422e+003,5.129662e-001
2.067350e+003,5.132889e-001
2.069279e+003,5.137848e-001
2.071207e+003,5.141505e-001
2.073136e+003,5.145746e-001
2.075064e+003,5.148567e-001
2.076993e+003,5.151030e-001
2.078921e+003,5.152844e-001
2.080850e+003,5.157098e-001
2.082778e+003,5.160803e-001
2.084707e+003,5.166477e-001
2.086635e+003,5.171053e-001
2.088564e+003,5.176994e-001
2.090492e+003,5.181498e-001
2.092421e+003,5.185692e-001
2.094349e+003,5.187389e-001
2.096278e+003,5.190130e-001
2.098206e+003,5.194191e-001
2.100135e+003,5.200923e-001
2.102063e+003,5.207013e-001
2.103992e+003,5.213262e-001
2.105920e+003,5.217593e-001
2.107849e+003,5.221822e-001
2.109777e+003,5.224265e-001
2.111706e+003,5.229353e-001
2.113634e+003,5.234312e-001
2.115563e+003,5.239609e-001
2.117491e+003,5.245004e-001
2.119420e+003,5.252574e-001
2.121348e+003,5.258641e-001
2.123277e+003,5.264764e-001
2.125205e+003,5.268381e-001
2.127134e+003,5.272773e-001
2.129062e+003,5.276802e-001
2.130991e+003,5.284114e-001
2.132919e+003,5.289958e-001
2.134848e+003,5.296385e-001
2.136776e+003,5.302970e-001
2.138705e+003,5.310347e-001
2.140633e+003,5.315787e-001
2.142562e+003,5.323043e-001
2.144490e+003,5.327890e-001
2.146419e+003,5.332968e-001
2.148347e+003,5.338480e-001
2.150276e+003,5.346318e-001
2.152204e+003,5.353152e-001
2.154133e+003,5.361841e-001
2.156061e+003,5.369145e-001
2.157990e+003,5.375707e-001
2.159918e+003,5.380165e-001
2.161847e+003,5.386142e-001
2.163775e+003,5.392417e-001
2.165704e+003,5.401262e-001
2.167632e+003,5.408700e-001
2.169561e+003,5.416998e-001
2.171489e+003,5.423907e-001
2.173418e+003,5.431673e-001
2.175346e+003,5.437079e-001
2.177275e+003,5.443030e-001
2.179203e+003,5.450116e-001
2.181132e+003,5.459216e-001
2.183060e+003,5.466905e-001
2.184989e+003,5.476617e-001
2.186917e+003,5.484798e-001
2.188846e+003,5.492705e-001
2.190774e+003,5.499544e-001
2.192703e+003,5.507822e-001
2.194631e+003,5.513615e-001
2.196560e+003,5.520748e-001
2.198488e+003,5.527892e-001
2.200417e+003,5.537144e-001
2.202345e+003,5.545778e-001
2.204274e+003,5.555695e-001
2.206202e+003,5.563173e-001
2.208131e+003,5.571274e-001
2.210059e+003,5.578566e-001
2.211988e+003,5.586452e-001
2.213916e+003,5.593971e-001
2.215845e+003,5.603843e-001
2.217773e+003,5.612327e-001
2.219702e+003,5.623888e-001
2.221630e+003,5.634400e-001
2.223559e+003,5.642644e-001
2.225487e+003,5.649770e-001
2.227416e+003,5.658475e-001
2.229344e+003,5.665949e-001
2.231273e+003,5.674906e-001
2.233201e+003,5.683279e-001
2.235130e+003,5.693297e-001
2.237058e+003,5.703357e-001
2.238987e+003,5.714051e-001
2.240915e+003,5.722680e-001
2.242844e+003,5.731295e-001
2.244772e+003,5.738524e-001
2.246701e+003,5.748177e-001
2.248629e+003,5.757231e-001
2.250558e+003,5.768293e-001
2.252486e+003,5.778551e-001
2.254415e+003,5.789654e-001
2.256343e+003,5.800085e-001
2.258272e+003,5.809845e-001
2.260200e+003,5.817881e-001
2.262129e+003,5.827308e-001
2.264057e+003,5.836805e-001
2.265986e+003,5.848004e-001
2.267914e+003,5.857006e-001
2.269843e+003,5.868303e-001
2.271771e+003,5.879083e-001
2.273700e+003,5.889874e-001
2.275628e+003,5.897063e-001
2.277557e+003,5.906308e-001
2.279485e+003,5.913901e-001
2.281414e+003,5.921545e-001
2.283342e+003,5.930914e-001
2.285271e+003,5.944085e-001
2.287199e+003,5.955901e-001
2.289128e+003,5.969437e-001
2.291056e+003,5.982170e-001
2.292985e+003,5.994686e-001
2.294913e+003,6.007393e-001
2.296842e+003,6.023445e-001
2.298770e+003,6.038169e-001
2.300699e+003,6.053031e-001
2.302627e+003,6.064612e-001
2.304556e+003,6.079496e-001
2.306484e+003,6.098349e-001
2.308413e+003,6.116731e-001
2.310341e+003,6.133164e-001
2.312270e+003,6.150749e-001
2.314198e+003,6.165441e-001
2.316127e+003,6.183816e-001
2.318055e+003,6.203560e-001
2.319984e+003,6.228982e-001
2.321912e+003,6.251644e-001
2.323841e+003,6.270818e-001
2.325769e+003,6.284543e-001
2.327698e+003,6.305842e-001
2.329626e+003,6.323506e-001
2.331555e+003,6.336809e-001
2.333483e+003,6.343160e-001
2.335412e+003,6.361845e-001
2.337340e+003,6.377996e-001
2.339269e+003,6.391070e-001
2.341197e+003,6.404536e-001
2.343126e+003,6.415731e-001
2.345054e+003,6.406857e-001
2.346983e+003,6.385865e-001
2.348911e+003,6.389617e-001
2.350840e+003,6.426418e-001
2.352768e+003,6.464552e-001
2.354697e+003,6.507689e-001
2.356625e+003,6.540439e-001
2.358554e+003,6.562695e-001
2.360482e+003,6.571364e-001
2.362411e+003,6.577979e-001
2.364339e+003,6.571535e-001
2.366268e+003,6.563445e-001
2.368196e+003,6.547368e-001
2.370125e+003,6.532339e-001
2.372053e+003,6.514345e-001
2.373982e+003,6.499267e-001
2.375910e+003,6.484850e-001
2.377839e+003,6.475265e-001
2.379767e+003,6.466388e-001
2.381696e+003,6.460534e-001
2.383624e+003,6.458007e-001
2.385553e+003,6.460524e-001
2.387481e+003,6.464074e-001
2.389410e+003,6.470998e-001
2.391338e+003,6.477084e-001
2.393267e+003,6.486165e-001
2.395195e+003,6.495495e-001
2.397124e+003,6.506482e-001
2.399052e+003,6.517179e-001
2.400981e+003,6.529074e-001
2.402909e+003,6.537113e-001
2.404838e+003,6.545767e-001
2.406766e+003,6.553767e-001
2.408695e+003,6.563267e-001
2.410623e+003,6.572130e-001
2.412552e+003,6.582492e-001
2.414480e+003,6.592078e-001
2.416409e+003,6.601726e-001
2.418337e+003,6.611137e-001
2.420266e+003,6.621483e-001
2.422194e+003,6.628920e-001
2.424123e+003,6.637269e-001
2.426051e+003,6.645017e-001
2.427980e+003,6.654529e-001
2.429908e+003,6.663707e-001
2.431837e+003,6.674189e-001
2.433765e+003,6.682829e-001
2.435694e+003,6.690878e-001
2.437622e+003,6.698677e-001
2.439551e+003,6.708865e-001
2.441479e+003,6.715827e-001
2.443408e+003,6.722240e-001
2.445336e+003,6.729105e-001
2.447265e+003,6.739463e-001
2.449193e+003,6.750782e-001
2.451122e+003,6.761494e-001
2.453050e+003,6.768211e-001
2.454979e+003,6.776599e-001
2.456907e+003,6.784448e-001
2.458836e+003,6.791353e-001
2.460764e+003,6.796142e-001
2.462693e+003,6.804589e-001
2.464621e+003,6.813415e-001
2.466550e+003,6.822788e-001
2.468478e+003,6.831901e-001
2.470406e+003,6.840497e-001
2.472335e+003,6.845963e-001
2.474264e+003,6.852013e-001
2.476192e+003,6.857411e-001
2.478121e+003,6.865456e-001
2.480049e+003,6.873693e-001
2.481978e+003,6.882058e-001
2.483906e+003,6.890469e-001
2.485834e+003,6.899921e-001
2.487763e+003,6.905614e-001
2.489692e+003,6.911778e-001
2.491620e+003,6.918177e-001
2.493549e+003,6.924525e-001
2.495477e+003,6.931098e-001
2.497406e+003,6.939180e-001
2.499334e+003,6.947307e-001
2.501262e+003,6.955440e-001
2.503191e+003,6.961306e-001
2.505120e+003,6.967301e-001
2.507048e+003,6.971244e-001
2.508977e+003,6.978020e-001
2.510905e+003,6.985191e-001
2.512833e+003,6.993935e-001
2.514762e+003,6.998433e-001
2.516690e+003,7.005775e-001
2.518619e+003,7.013251e-001
2.520548e+003,7.020151e-001
2.522476e+003,7.025583e-001
2.524405e+003,7.029946e-001
2.526333e+003,7.031499e-001
2.528261e+003,7.036831e-001
2.530190e+003,7.044647e-001
2.532119e+003,7.052150e-001
2.534047e+003,7.057005e-001
2.535976e+003,7.066061e-001
2.537904e+003,7.071764e-001
2.539833e+003,7.075546e-001
2.541761e+003,7.078695e-001
2.543689e+003,7.082453e-001
2.545618e+003,7.087027e-001
2.547547e+003,7.095057e-001
2.549475e+003,7.101290e-001
2.551404e+003,7.107759e-001
2.553332e+003,7.110426e-001
2.555260e+003,7.115141e-001
2.557189e+003,7.118831e-001
2.559117e+003,7.123317e-001
2.561046e+003,7.128615e-001
2.562975e+003,7.135016e-001
2.564903e+003,7.137864e-001
2.566832e+003,7.145193e-001
2.568760e+003,7.151243e-001
2.570688e+003,7.156503e-001
2.572617e+003,7.158484e-001
2.574545e+003,7.161221e-001
2.576474e+003,7.165441e-001
2.578403e+003,7.171546e-001
2.580331e+003,7.175132e-001
2.582260e+003,7.181426e-001
2.584188e+003,7.186090e-001
2.586116e+003,7.190019e-001
2.588045e+003,7.193297e-001
2.589973e+003,7.197354e-001
2.591902e+003,7.199693e-001
2.593831e+003,7.203364e-001
2.595759e+003,7.208827e-001
2.597688e+003,7.215883e-001
2.599616e+003,7.220009e-001
2.601544e+003,7.223772e-001
2.603473e+003,7.228343e-001
2.605401e+003,7.233195e-001
2.607330e+003,7.233668e-001
2.609259e+003,7.236705e-001
2.611187e+003,7.241445e-001
2.613115e+003,7.245830e-001
2.615044e+003,7.249928e-001
2.616972e+003,7.255735e-001
2.618901e+003,7.258568e-001
2.620830e+003,7.262825e-001
2.622758e+003,7.264854e-001
2.624687e+003,7.265605e-001
2.626615e+003,7.268321e-001
2.628543e+003,7.273065e-001
2.630472e+003,7.276850e-001
2.632400e+003,7.284237e-001
2.634329e+003,7.290376e-001
2.636258e+003,7.292637e-001
2.638186e+003,7.293361e-001
2.640115e+003,7.295054e-001
2.642043e+003,7.296774e-001
2.643971e+003,7.299710e-001
2.645900e+003,7.301963e-001
2.647828e+003,7.307317e-001
2.649757e+003,7.312077e-001
2.651686e+003,7.318228e-001
2.653614e+003,7.322146e-001
2.655542e+003,7.320622e-001
2.657471e+003,7.319449e-001
2.659399e+003,7.321493e-001
2.661328e+003,7.324168e-001
2.663256e+003,7.329152e-001
2.665185e+003,7.331917e-001
2.667114e+003,7.337623e-001
2.669042e+003,7.341933e-001
2.670970e+003,7.344071e-001
2.672899e+003,7.343600e-001
2.674827e+003,7.343169e-001
2.676756e+003,7.344888e-001
2.678684e+003,7.350568e-001
2.680613e+003,7.353067e-001
2.682542e+003,7.354982e-001
2.684470e+003,7.358559e-001
2.686398e+003,7.362642e-001
2.688327e+003,7.363832e-001
2.690255e+003,7.365453e-001
2.692184e+003,7.367124e-001
2.694112e+003,7.370459e-001
2.696041e+003,7.371351e-001
2.697969e+003,7.375354e-001
2.699898e+003,7.378320e-001
2.701826e+003,7.380289e-001
2.703755e+003,7.382776e-001
2.705683e+003,7.386468e-001
2.707612e+003,7.386574e-001
2.709540e+003,7.387103e-001
2.711469e+003,7.387516e-001
2.713397e+003,7.391402e-001
2.715326e+003,7.393395e-001
2.717254e+003,7.397034e-001
2.719183e+003,7.402366e-001
2.721111e+003,7.405937e-001
2.723040e+003,7.405447e-001
2.724969e+003,7.404011e-001
2.726897e+003,7.403243e-001
2.728825e+003,7.405071e-001
2.730754e+003,7.406417e-001
2.732682e+003,7.409993e-001
2.734611e+003,7.412396e-001
2.736539e+003,7.416496e-001
2.738468e+003,7.419634e-001
2.740396e+003,7.420409e-001
2.742325e+003,7.419903e-001
2.744253e+003,7.421618e-001
2.746182e+003,7.426068e-001
2.748110e+003,7.430447e-001
2.750039e+003,7.430327e-001
2.751967e+003,7.431332e-001
2.753896e+003,7.433869e-001
2.755824e+003,7.435456e-001
2.757753e+003,7.434713e-001
2.759681e+003,7.435312e-001
2.761610e+003,7.435367e-001
2.763538e+003,7.439589e-001
2.765467e+003,7.442467e-001
2.767395e+003,7.447175e-001
2.769324e+003,7.449085e-001
2.771252e+003,7.449626e-001
2.773181e+003,7.448745e-001
2.775109e+003,7.449627e-001
2.777038e+003,7.451272e-001
2.778966e+003,7.452962e-001
2.780895e+003,7.454765e-001
2.782823e+003,7.458650e-001
2.784752e+003,7.461621e-001
2.786680e+003,7.463874e-001
2.788609e+003,7.465118e-001
2.790537e+003,7.465208e-001
2.792466e+003,7.462988e-001
2.794394e+003,7.463369e-001
2.796323e+003,7.464333e-001
2.798251e+003,7.468684e-001
2.800180e+003,7.471647e-001
2.802108e+003,7.474058e-001
2.804037e+003,7.474076e-001
2.805965e+003,7.475926e-001
2.807894e+003,7.477289e-001
2.809822e+003,7.477378e-001
2.811751e+003,7.477548e-001
2.813679e+003,7.479230e-001
2.815608e+003,7.479886e-001
2.817536e+003,7.483044e-001
2.819465e+003,7.486454e-001
2.821393e+003,7.487980e-001
2.823322e+003,7.487474e-001
2.825250e+003,7.490362e-001
2.827179e+003,7.490629e-001
2.829107e+003,7.490452e-001
2.831036e+003,7.492223e-001
2.832964e+003,7.495831e-001
2.834893e+003,7.497877e-001
2.836821e+003,7.500389e-001
2.838750e+003,7.501222e-001
2.840678e+003,7.501606e-001
2.842607e+003,7.501554e-001
2.844535e+003,7.504746e-001
2.846464e+003,7.505379e-001
2.848392e+003,7.508063e-001
2.850321e+003,7.509490e-001
2.852249e+003,7.509161e-001
2.854178e+003,7.509335e-001
2.856106e+003,7.510905e-001
2.858035e+003,7.512823e-001
2.859963e+003,7.516193e-001
2.861892e+003,7.515352e-001
2.863820e+003,7.515998e-001
2.865749e+003,7.518275e-001
2.867677e+003,7.520992e-001
2.869606e+003,7.521048e-001
2.871534e+003,7.521889e-001
2.873463e+003,7.520478e-001
2.875391e+003,7.519804e-001
2.877320e+003,7.518247e-001
2.879248e+003,7.518681e-001
2.881177e+003,7.518908e-001
2.883105e+003,7.522541e-001
2.885034e+003,7.525376e-001
2.886962e+003,7.528743e-001
2.888891e+003,7.529057e-001
2.890819e+003,7.526862e-001
2.892748e+003,7.525321e-001
2.894676e+003,7.530848e-001
2.896605e+003,7.532550e-001
2.898533e+003,7.531076e-001
2.900462e+003,7.531016e-001
2.902390e+003,7.533200e-001
2.904319e+003,7.534172e-001
2.906247e+003,7.536566e-001
2.908176e+003,7.537116e-001
2.910104e+003,7.539928e-001
2.912033e+003,7.542250e-001
2.913961e+003,7.543384e-001
2.915890e+003,7.544792e-001
2.917818e+003,7.545285e-001
2.919747e+003,7.540341e-001
2.921675e+003,7.536207e-001
2.923604e+003,7.535034e-001
2.925532e+003,7.539513e-001
2.927461e+003,7.541135e-001
2.929389e+003,7.542849e-001
2.931318e+003,7.544078e-001
2.933246e+003,7.544864e-001
2.935175e+003,7.543844e-001
2.937103e+003,7.541914e-001
2.939032e+003,7.538235e-001
2.940960e+003,7.537733e-001
2.942889e+003,7.539787e-001
2.944817e+003,7.542015e-001
2.946746e+003,7.542465e-001
2.948674e+003,7.543358e-001
2.950603e+003,7.544675e-001
2.952531e+003,7.545565e-001
2.954460e+003,7.541013e-001
2.956388e+003,7.538056e-001
2.958317e+003,7.535701e-001
2.960245e+003,7.534758e-001
2.962174e+003,7.534823e-001
2.964102e+003,7.535653e-001
2.966031e+003,7.534242e-001
2.967959e+003,7.533749e-001
2.969888e+003,7.534560e-001
2.971816e+003,7.537765e-001
2.973745e+003,7.537104e-001
2.975673e+003,7.534304e-001
2.977602e+003,7.533215e-001
2.979530e+003,7.536953e-001
2.981459e+003,7.537536e-001
2.983387e+003,7.537235e-001
2.985316e+003,7.536456e-001
2.987244e+003,7.533590e-001
2.989173e+003,7.530227e-001
2.991101e+003,7.532499e-001
2.993030e+003,7.533385e-001
2.994958e+003,7.534012e-001
2.996887e+003,7.533821e-001
2.998815e+003,7.532772e-001
3.000744e+003,7.531446e-001
3.002672e+003,7.530860e-001
3.004601e+003,7.529492e-001
3.006529e+003,7.529487e-001
3.008458e+003,7.532727e-001
3.010386e+003,7.533145e-001
3.012315e+003,7.529851e-001
3.014243e+003,7.530833e-001
3.016172e+003,7.531477e-001
3.018100e+003,7.531899e-001
3.020029e+003,7.529981e-001
3.021957e+003,7.529255e-001
3.023886e+003,7.528050e-001
3.025814e+003,7.526450e-001
3.027743e+003,7.524277e-001
3.029671e+003,7.526027e-001
3.031600e+003,7.527460e-001
3.033528e+003,7.528411e-001
3.035457e+003,7.524478e-001
3.037385e+003,7.525154e-001
3.039314e+003,7.525245e-001
3.041242e+003,7.523672e-001
3.043171e+003,7.521769e-001
3.045099e+003,7.522169e-001
3.047028e+003,7.521750e-001
3.048956e+003,7.522149e-001
3.050885e+003,7.523003e-001
3.052813e+003,7.521459e-001
3.054742e+003,7.519552e-001
3.056670e+003,7.519289e-001
3.058599e+003,7.515528e-001
3.060527e+003,7.515602e-001
3.062456e+003,7.518944e-001
3.064384e+003,7.518530e-001
3.066313e+003,7.516577e-001
3.068241e+003,7.516231e-001
3.070170e+003,7.514185e-001
3.072098e+003,7.510481e-001
3.074027e+003,7.507118e-001
3.075955e+003,7.511489e-001
3.077884e+003,7.512687e-001
3.079812e+003,7.511903e-001
3.081741e+003,7.512438e-001
3.083669e+003,7.513742e-001
3.085598e+003,7.512795e-001
3.087526e+003,7.510374e-001
3.089455e+003,7.508211e-001
3.091383e+003,7.505469e-001
3.093312e+003,7.501281e-001
3.095240e+003,7.501428e-001
3.097169e+003,7.503324e-001
3.099097e+003,7.508311e-001
3.101026e+003,7.509066e-001
3.102954e+003,7.507274e-001
3.104883e+003,7.502471e-001
3.106811e+003,7.501204e-001
3.108740e+003,7.500069e-001
3.110668e+003,7.501438e-001
3.112597e+003,7.503738e-001
3.114525e+003,7.505755e-001
3.116454e+003,7.503674e-001
3.118382e+003,7.501387e-001
3.120311e+003,7.500712e-001
3.122239e+003,7.498555e-001
3.124167e+003,7.496242e-001
3.126096e+003,7.494227e-001
3.128025e+003,7.492729e-001
3.129953e+003,7.492679e-001
3.131882e+003,7.490619e-001
3.133810e+003,7.490572e-001
3.135739e+003,7.489676e-001
3.137667e+003,7.489800e-001
3.139595e+003,7.490442e-001
3.141524e+003,7.489212e-001
3.143453e+003,7.489924e-001
3.145381e+003,7.490695e-001
3.147310e+003,7.488564e-001
3.149238e+003,7.490448e-001
3.151167e+003,7.492003e-001
3.153095e+003,7.491283e-001
3.155023e+003,7.488898e-001
3.156952e+003,7.484669e-001
3.158881e+003,7.481995e-001
3.160809e+003,7.483892e-001
3.162738e+003,7.483515e-001
3.164666e+003,7.483901e-001
3.166594e+003,7.480998e-001
3.168523e+003,7.479315e-001
3.170452e+003,7.479869e-001
3.172380e+003,7.479390e-001
3.174309e+003,7.478149e-001
3.176237e+003,7.481775e-001
3.178166e+003,7.482002e-001
3.180094e+003,7.481862e-001
3.182022e+003,7.482589e-001
3.183951e+003,7.482554e-001
3.185880e+003,7.485521e-001
3.187808e+003,7.487347e-001
3.189737e+003,7.481128e-001
3.191665e+003,7.482177e-001
3.193594e+003,7.484698e-001
3.195522e+003,7.485415e-001
3.197450e+003,7.483607e-001
3.199379e+003,7.482951e-001
3.201308e+003,7.483280e-001
3.203236e+003,7.484407e-001
3.205165e+003,7.482495e-001
3.207093e+003,7.479911e-001
3.209021e+003,7.477716e-001
3.210950e+003,7.479569e-001
3.212878e+003,7.484331e-001
3.214807e+003,7.485394e-001
3.216736e+003,7.484624e-001
3.218664e+003,7.484571e-001
3.220593e+003,7.480109e-001
3.222521e+003,7.480413e-001
3.224449e+003,7.482870e-001
3.226378e+003,7.485319e-001
3.228306e+003,7.484872e-001
3.230235e+003,7.486094e-001
3.232164e+003,7.485701e-001
3.234092e+003,7.486884e-001
3.236021e+003,7.486104e-001
3.237949e+003,7.484499e-001
3.239877e+003,7.482750e-001
3.241806e+003,7.482474e-001
3.243734e+003,7.483848e-001
3.245663e+003,7.487163e-001
3.247592e+003,7.487619e-001
3.249520e+003,7.486758e-001
3.251448e+003,7.486917e-001
3.253377e+003,7.487031e-001
3.255305e+003,7.485415e-001
3.257234e+003,7.483988e-001
3.259162e+003,7.485486e-001
3.261091e+003,7.488824e-001
3.263020e+003,7.488921e-001
3.264948e+003,7.488142e-001
3.266876e+003,7.486020e-001
3.268805e+003,7.484990e-001
3.270733e+003,7.485291e-001
3.272662e+003,7.486743e-001
3.274591e+003,7.487208e-001
3.276519e+003,7.484531e-001
3.278448e+003,7.481712e-001
3.280376e+003,7.482647e-001
3.282304e+003,7.481945e-001
3.284233e+003,7.483690e-001
3.286161e+003,7.482594e-001
3.288090e+003,7.484087e-001
3.290019e+003,7.485133e-001
3.291947e+003,7.485086e-001
3.293875e+003,7.486875e-001
3.295804e+003,7.488365e-001
3.297732e+003,7.485780e-001
3.299661e+003,7.485542e-001
3.301589e+003,7.486158e-001
3.303518e+003,7.486959e-001
3.305447e+003,7.484284e-001
3.307375e+003,7.483518e-001
3.309303e+003,7.482902e-001
3.311232e+003,7.479074e-001
3.313160e+003,7.475387e-001
3.315089e+003,7.478034e-001
3.317017e+003,7.480900e-001
3.318946e+003,7.482238e-001
3.320875e+003,7.482306e-001
3.322803e+003,7.486095e-001
3.324731e+003,7.482127e-001
3.326660e+003,7.476497e-001
3.328588e+003,7.478153e-001
3.330517e+003,7.481594e-001
3.332445e+003,7.484123e-001
3.334374e+003,7.487556e-001
3.336302e+003,7.487714e-001
3.338231e+003,7.488075e-001
3.340159e+003,7.485644e-001
3.342088e+003,7.483344e-001
3.344016e+003,7.479733e-001
3.345945e+003,7.480307e-001
3.347873e+003,7.485150e-001
3.349802e+003,7.487336e-001
3.351730e+003,7.483722e-001
3.353659e+003,7.480205e-001
3.355587e+003,7.480806e-001
3.357516e+003,7.485066e-001
3.359444e+003,7.486305e-001
3.361373e+003,7.484725e-001
3.363302e+003,7.483293e-001
3.365230e+003,7.485482e-001
3.367158e+003,7.486052e-001
3.369087e+003,7.482261e-001
3.371015e+003,7.478994e-001
3.372944e+003,7.479846e-001
3.374872e+003,7.479786e-001
3.376801e+003,7.479712e-001
3.378729e+003,7.477353e-001
3.380658e+003,7.480096e-001
3.382586e+003,7.481911e-001
3.384515e+003,7.476428e-001
3.386443e+003,7.471377e-001
3.388372e+003,7.472473e-001
3.390300e+003,7.474274e-001
3.392229e+003,7.476990e-001
3.394157e+003,7.475623e-001
3.396086e+003,7.475597e-001
3.398014e+003,7.475454e-001
3.399943e+003,7.474602e-001
3.401871e+003,7.468597e-001
3.403800e+003,7.461930e-001
3.405728e+003,7.462053e-001
3.407657e+003,7.464642e-001
3.409585e+003,7.460705e-001
3.411514e+003,7.458162e-001
3.413442e+003,7.456421e-001
3.415371e+003,7.455634e-001
3.417299e+003,7.452700e-001
3.419228e+003,7.454774e-001
3.421156e+003,7.451032e-001
3.423085e+003,7.443984e-001
3.425013e+003,7.441274e-001
3.426942e+003,7.442735e-001
3.428870e+003,7.442213e-001
3.430799e+003,7.440678e-001
3.432727e+003,7.436985e-001
3.434656e+003,7.434438e-001
3.436584e+003,7.430043e-001
3.438513e+003,7.424862e-001
3.440441e+003,7.422219e-001
3.442370e+003,7.424272e-001
3.444298e+003,7.424744e-001
3.446227e+003,7.418990e-001
3.448155e+003,7.406947e-001
3.450084e+003,7.401216e-001
3.452012e+003,7.398391e-001
3.453941e+003,7.395349e-001
3.455869e+003,7.388939e-001
3.457798e+003,7.387764e-001
3.459726e+003,7.387736e-001
3.461655e+003,7.379209e-001
3.463583e+003,7.374206e-001
3.465512e+003,7.375064e-001
3.467440e+003,7.369505e-001
3.469369e+003,7.361358e-001
3.471297e+003,7.353388e-001
3.473226e+003,7.350861e-001
3.475154e+003,7.340084e-001
3.477083e+003,7.339069e-001
3.479011e+003,7.344090e-001
3.480940e+003,7.335545e-001
3.482868e+003,7.316627e-001
3.484797e+003,7.311965e-001
3.486725e+003,7.310992e-001
3.488654e+003,7.306769e-001
3.490582e+003,7.300094e-001
3.492511e+003,7.296751e-001
3.494439e+003,7.293256e-001
3.496368e+003,7.289065e-001
3.498296e+003,7.280475e-001
3.500225e+003,7.274126e-001
3.502153e+003,7.265783e-001
3.504082e+003,7.252700e-001
3.506010e+003,7.246883e-001
3.507939e+003,7.246351e-001
3.509867e+003,7.235243e-001
3.511796e+003,7.231551e-001
3.513724e+003,7.224494e-001
3.515653e+003,7.217588e-001
3.517581e+003,7.207732e-001
3.519510e+003,7.199786e-001
3.521438e+003,7.199862e-001
3.523367e+003,7.200590e-001
3.525295e+003,7.190090e-001
3.527224e+003,7.180495e-001
3.529152e+003,7.173400e-001
3.531081e+003,7.164881e-001
3.533009e+003,7.151883e-001
3.534938e+003,7.144201e-001
3.536866e+003,7.134092e-001
3.538795e+003,7.130342e-001
3.540723e+003,7.128856e-001
3.542652e+003,7.126885e-001
3.544580e+003,7.117482e-001
3.546509e+003,7.104707e-001
3.548437e+003,7.094831e-001
3.550366e+003,7.091382e-001
3.552294e+003,7.080458e-001
3.554223e+003,7.066045e-001
3.556151e+003,7.057959e-001
3.558080e+003,7.051681e-001
3.560008e+003,7.045196e-001
3.561937e+003,7.043355e-001
3.563865e+003,7.042283e-001
3.565794e+003,7.038260e-001
3.567722e+003,7.016459e-001
3.569651e+003,7.002577e-001
3.571579e+003,6.992089e-001
3.573508e+003,6.983244e-001
3.575436e+003,6.973207e-001
3.577365e+003,6.966431e-001
3.579293e+003,6.959062e-001
3.581222e+003,6.952217e-001
3.583150e+003,6.947888e-001
3.585079e+003,6.950600e-001
3.587007e+003,6.934907e-001
3.588936e+003,6.912769e-001
3.590864e+003,6.910689e-001
3.592793e+003,6.909288e-001
3.594721e+003,6.896213e-001
3.596650e+003,6.889705e-001
3.598578e+003,6.885072e-001
3.600507e+003,6.867694e-001
3.602435e+003,6.853090e-001
3.604364e+003,6.849498e-001
3.606292e+003,6.849470e-001
3.608221e+003,6.838530e-001
3.610149e+003,6.822734e-001
3.612078e+003,6.818104e-001
3.614006e+003,6.805820e-001
3.615935e+003,6.802599e-001
3.617863e+003,6.799577e-001
3.619792e+003,6.786186e-001
3.621720e+003,6.766264e-001
3.623649e+003,6.759215e-001
3.625577e+003,6.764408e-001
3.627506e+003,6.768811e-001
3.629434e+003,6.730350e-001
3.631363e+003,6.721995e-001
3.633291e+003,6.709207e-001
3.635220e+003,6.691837e-001
3.637148e+003,6.682892e-001
3.639077e+003,6.675580e-001
3.641005e+003,6.664974e-001
3.642934e+003,6.658498e-001
3.644862e+003,6.666116e-001
3.646791e+003,6.675560e-001
3.648719e+003,6.668444e-001
3.650648e+003,6.628419e-001
3.652576e+003,6.607944e-001
3.654505e+003,6.605959e-001
3.656433e+003,6.585411e-001
3.658362e+003,6.574985e-001
3.660290e+003,6.569458e-001
3.662219e+003,6.561381e-001
3.664147e+003,6.553012e-001
3.666076e+003,6.554027e-001
3.668004e+003,6.565725e-001
3.669933e+003,6.555387e-001
3.671861e+003,6.541538e-001
3.673790e+003,6.559837e-001
3.675718e+003,6.522884e-001
3.677647e+003,6.504779e-001
3.679575e+003,6.492436e-001
3.681504e+003,6.485509e-001
3.683432e+003,6.481515e-001
3.685361e+003,6.482468e-001
3.687289e+003,6.485059e-001
3.689218e+003,6.474785e-001
3.691146e+003,6.455717e-001
3.693075e+003,6.445144e-001
3.695003e+003,6.435279e-001
3.696932e+003,6.425910e-001
3.698860e+003,6.421723e-001
3.700789e+003,6.415462e-001
3.702717e+003,6.398601e-001
3.704646e+003,6.389909e-001
3.706574e+003,6.386504e-001
3.708503e+003,6.393049e-001
3.710431e+003,6.396621e-001
3.712360e+003,6.367665e-001
3.714288e+003,6.346990e-001
3.716217e+003,6.344415e-001
3.718145e+003,6.343114e-001
3.720074e+003,6.343763e-001
3.722002e+003,6.341465e-001
3.723931e+003,6.339412e-001
3.725859e+003,6.335050e-001
3.727788e+003,6.326495e-001
3.729716e+003,6.323804e-001
3.731645e+003,6.322181e-001
3.733573e+003,6.335654e-001
3.735502e+003,6.335094e-001
3.737430e+003,6.294461e-001
3.739359e+003,6.280211e-001
3.741287e+003,6.279279e-001
3.743216e+003,6.279499e-001
3.745144e+003,6.254476e-001
3.747073e+003,6.260803e-001
3.749001e+003,6.262719e-001
3.750930e+003,6.243145e-001
3.752858e+003,6.204609e-001
3.754787e+003,6.201692e-001
3.756715e+003,6.202388e-001
3.758644e+003,6.191851e-001
3.760572e+003,6.169677e-001
3.762500e+003,6.169500e-001
3.764429e+003,6.169538e-001
3.766358e+003,6.165493e-001
3.768286e+003,6.165512e-001
3.770215e+003,6.142555e-001
3.772143e+003,6.126778e-001
3.774072e+003,6.123334e-001
3.776000e+003,6.124844e-001
3.777928e+003,6.134039e-001
3.779857e+003,6.114484e-001
3.781786e+003,6.105986e-001
3.783714e+003,6.103935e-001
3.785643e+003,6.093919e-001
3.787571e+003,6.085068e-001
3.789500e+003,6.080627e-001
3.791428e+003,6.073095e-001
3.793356e+003,6.078605e-001
3.795285e+003,6.085042e-001
3.797214e+003,6.080530e-001
3.799142e+003,6.088381e-001
3.801071e+003,6.081170e-001
3.802999e+003,6.052244e-001
3.804927e+003,6.059378e-001
3.806856e+003,6.042705e-001
3.808785e+003,6.031656e-001
3.810713e+003,6.029755e-001
3.812642e+003,6.035700e-001
3.814570e+003,6.045280e-001
3.816499e+003,6.037961e-001
3.818427e+003,6.046211e-001
3.820355e+003,6.045261e-001
3.822284e+003,6.009033e-001
3.824213e+003,6.013631e-001
3.826141e+003,6.007844e-001
3.828070e+003,5.999946e-001
3.829998e+003,5.998644e-001
3.831927e+003,5.994713e-001
3.833855e+003,6.000010e-001
3.835783e+003,6.017634e-001
3.837712e+003,6.012533e-001
3.839641e+003,5.991373e-001
3.841569e+003,5.978188e-001
3.843498e+003,5.969213e-001
3.845426e+003,5.963379e-001
3.847354e+003,5.966895e-001
3.849283e+003,5.974537e-001
3.851211e+003,5.997145e-001
3.853140e+003,5.980700e-001
3.855069e+003,5.948594e-001
3.856997e+003,5.943593e-001
3.858926e+003,5.949731e-001
3.860854e+003,5.957800e-001
3.862782e+003,5.960961e-001
3.864711e+003,5.947090e-001
3.866639e+003,5.944645e-001
3.868568e+003,5.949138e-001
3.870497e+003,5.930342e-001
3.872425e+003,5.923874e-001
3.874354e+003,5.915433e-001
3.876282e+003,5.913131e-001
3.878210e+003,5.921164e-001
3.880139e+003,5.920094e-001
3.882067e+003,5.919023e-001
3.883996e+003,5.917901e-001
3.885925e+003,5.896164e-001
3.887853e+003,5.895880e-001
3.889781e+003,5.911478e-001
3.891710e+003,5.910608e-001
3.893638e+003,5.899588e-001
3.895567e+003,5.898979e-001
3.897495e+003,5.909890e-001
3.899424e+003,5.909437e-001
3.901353e+003,5.908502e-001
3.903281e+003,5.904112e-001
3.905209e+003,5.885025e-001
3.907138e+003,5.873263e-001
3.909066e+003,5.874847e-001
3.910995e+003,5.873687e-001
3.912924e+003,5.874750e-001
3.914852e+003,5.880755e-001
3.916781e+003,5.881375e-001
3.918709e+003,5.877106e-001
3.920637e+003,5.878381e-001
3.922566e+003,5.881246e-001
3.924494e+003,5.875605e-001
3.926423e+003,5.871855e-001
3.928352e+003,5.881425e-001
3.930280e+003,5.884112e-001
3.932208e+003,5.877019e-001
3.934137e+003,5.866860e-001
3.936065e+003,5.866081e-001
3.937994e+003,5.865092e-001
3.939922e+003,5.869414e-001
3.941851e+003,5.872775e-001
3.943780e+003,5.871457e-001
3.945708e+003,5.871682e-001
3.947636e+003,5.876139e-001
3.949565e+003,5.872276e-001
3.951493e+003,5.871132e-001
3.953422e+003,5.869626e-001
3.955350e+003,5.871966e-001
3.957279e+003,5.874814e-001
3.959208e+003,5.881829e-001
3.961136e+003,5.880560e-001
3.963064e+003,5.876790e-001
3.964993e+003,5.873426e-001
3.966921e+003,5.876061e-001
3.968850e+003,5.875233e-001
3.970778e+003,5.877097e-001
3.972707e+003,5.882220e-001
3.974635e+003,5.886257e-001
3.976564e+003,5.888239e-001
3.978492e+003,5.892125e-001
3.980421e+003,5.892671e-001
3.982349e+003,5.891408e-001
3.984278e+003,5.890123e-001
3.986206e+003,5.893505e-001
3.988135e+003,5.895263e-001
3.990063e+003,5.900820e-001
3.991992e+003,5.902017e-001
3.993920e+003,5.901365e-001
3.995849e+003,5.899652e-001
3.997777e+003,5.902731e-001
3.999706e+003,5.905871e-001
