3.991992e+002,7.244235e-001
4.011277e+002,7.209388e-001
4.030562e+002,7.149975e-001
4.049847e+002,7.036950e-001
4.069132e+002,6.993392e-001
4.088417e+002,7.024376e-001
4.107702e+002,7.034522e-001
4.126987e+002,7.043700e-001
4.146272e+002,7.069330e-001
4.165557e+002,7.083458e-001
4.184842e+002,7.144921e-001
4.204127e+002,7.163209e-001
4.223412e+002,7.125178e-001
4.242697e+002,7.181863e-001
4.261982e+002,7.256025e-001
4.281267e+002,7.291690e-001
4.300552e+002,7.338745e-001
4.319837e+002,7.380942e-001
4.339122e+002,7.470365e-001
4.358407e+002,7.564374e-001
4.377692e+002,7.637405e-001
4.396977e+002,7.731054e-001
4.416262e+002,7.858346e-001
4.435547e+002,8.011308e-001
4.454832e+002,8.170108e-001
4.474117e+002,8.347789e-001
4.493401e+002,8.533860e-001
4.512686e+002,8.781329e-001
4.531971e+002,8.995573e-001
4.551256e+002,9.134880e-001
4.570541e+002,9.320139e-001
4.589826e+002,9.490647e-001
4.609111e+002,9.524157e-001
4.628396e+002,9.519898e-001
4.647681e+002,9.501764e-001
4.666966e+002,9.340799e-001
4.686251e+002,9.116960e-001
4.705536e+002,8.937191e-001
4.724821e+002,8.706338e-001
4.744106e+002,8.492169e-001
4.763391e+002,8.339390e-001
4.782676e+002,8.174395e-001
4.801961e+002,8.025099e-001
4.821246e+002,7.917312e-001
4.840531e+002,7.861740e-001
4.859816e+002,7.785572e-001
4.879101e+002,7.724790e-001
4.898386e+002,7.702234e-001
4.917671e+002,7.687894e-001
4.936956e+002,7.666419e-001
4.956241e+002,7.677738e-001
4.975526e+002,7.700863e-001
4.994811e+002,7.718319e-001
5.014096e+002,7.774777e-001
5.033381e+002,7.846847e-001
5.052666e+002,7.889930e-001
5.071951e+002,7.965904e-001
5.091236e+002,8.063476e-001
5.110521e+002,8.173590e-001
5.129806e+002,8.265799e-001
5.149091e+002,8.350959e-001
5.168376e+002,8.490867e-001
5.187661e+002,8.684726e-001
5.206946e+002,8.860315e-001
5.226231e+002,9.053062e-001
5.245516e+002,9.247987e-001
5.264801e+002,9.472610e-001
5.284086e+002,9.686202e-001
5.303371e+002,9.952257e-001
5.322656e+002,1.024591e+000
5.341941e+002,1.049466e+000
5.361226e+002,1.072580e+000
5.380511e+002,1.100306e+000
5.399796e+002,1.128326e+000
5.419081e+002,1.158372e+000
5.438365e+002,1.184581e+000
5.457651e+002,1.205707e+000
5.476936e+002,1.220108e+000
5.496221e+002,1.231035e+000
5.515506e+002,1.236934e+000
5.534791e+002,1.236160e+000
5.554076e+002,1.227023e+000
5.573361e+002,1.215234e+000
5.592646e+002,1.204481e+000
5.611931e+002,1.192218e+000
5.631216e+002,1.180869e+000
5.650500e+002,1.174981e+000
5.669786e+002,1.166939e+000
5.689070e+002,1.156542e+000
5.708356e+002,1.141309e+000
5.727640e+002,1.123172e+000
5.746926e+002,1.100131e+000
5.766210e+002,1.065329e+000
5.785496e+002,1.029971e+000
5.804780e+002,9.942213e-001
5.824066e+002,9.585930e-001
5.843350e+002,9.264958e-001
5.862635e+002,8.949062e-001
5.881920e+002,8.656560e-001
5.901205e+002,8.397658e-001
5.920490e+002,8.176696e-001
5.939775e+002,7.989492e-001
5.959060e+002,7.831358e-001
5.978345e+002,7.687719e-001
5.997631e+002,7.540001e-001
6.016915e+002,7.405594e-001
6.036201e+002,7.293162e-001
6.055485e+002,7.187487e-001
6.074771e+002,7.084616e-001
6.094055e+002,6.987876e-001
6.113340e+002,6.884513e-001
6.132625e+002,6.791166e-001
6.151910e+002,6.714632e-001
6.171195e+002,6.641729e-001
6.190480e+002,6.563503e-001
6.209765e+002,6.482455e-001
6.229050e+002,6.409914e-001
6.248335e+002,6.348706e-001
6.267620e+002,6.294445e-001
6.286905e+002,6.235509e-001
6.306190e+002,6.174923e-001
6.325475e+002,6.116022e-001
6.344760e+002,6.068063e-001
6.364045e+002,6.028482e-001
6.383330e+002,5.993879e-001
6.402615e+002,5.974029e-001
6.421900e+002,5.970827e-001
6.441185e+002,5.968964e-001
6.460470e+002,5.982032e-001
6.479755e+002,6.008267e-001
6.499040e+002,6.043430e-001
6.518325e+002,6.080760e-001
6.537610e+002,6.130890e-001
6.556895e+002,6.188641e-001
6.576180e+002,6.244524e-001
6.595465e+002,6.290928e-001
6.614750e+002,6.331771e-001
6.634035e+002,6.348565e-001
6.653320e+002,6.345897e-001
6.672605e+002,6.334983e-001
6.691890e+002,6.323675e-001
6.711175e+002,6.291587e-001
6.730460e+002,6.252949e-001
6.749745e+002,6.210319e-001
6.769030e+002,6.172737e-001
6.788315e+002,6.140512e-001
6.807599e+002,6.101145e-001
6.826885e+002,6.067065e-001
6.846169e+002,6.045682e-001
6.865455e+002,6.032231e-001
6.884739e+002,6.024084e-001
6.904025e+002,6.015449e-001
6.923309e+002,6.011046e-001
6.942595e+002,6.007422e-001
6.961880e+002,5.993339e-001
6.981165e+002,5.976915e-001
7.000450e+002,5.956744e-001
7.019734e+002,5.932969e-001
7.039020e+002,5.907463e-001
7.058304e+002,5.883581e-001
7.077590e+002,5.863013e-001
7.096874e+002,5.849168e-001
7.116160e+002,5.841253e-001
7.135444e+002,5.832308e-001
7.154730e+002,5.813933e-001
7.174014e+002,5.791284e-001
7.193300e+002,5.769734e-001
7.212584e+002,5.738184e-001
7.231870e+002,5.701756e-001
7.251154e+002,5.669541e-001
7.270439e+002,5.635062e-001
7.289724e+002,5.596530e-001
7.309009e+002,5.559087e-001
7.328294e+002,5.529800e-001
7.347579e+002,5.500419e-001
7.366864e+002,5.468024e-001
7.386149e+002,5.429825e-001
7.405434e+002,5.395619e-001
7.424719e+002,5.361804e-001
7.444004e+002,5.324171e-001
7.463289e+002,5.285378e-001
7.482574e+002,5.247611e-001
7.501859e+002,5.205302e-001
7.521144e+002,5.162748e-001
7.540429e+002,5.121045e-001
7.559714e+002,5.082376e-001
7.578999e+002,5.045650e-001
7.598284e+002,5.009125e-001
7.617569e+002,4.970131e-001
7.636854e+002,4.928178e-001
7.656139e+002,4.884013e-001
7.675424e+002,4.843676e-001
7.694709e+002,4.803182e-001
7.713994e+002,4.761817e-001
7.733279e+002,4.718480e-001
7.752564e+002,4.678518e-001
7.771849e+002,4.644402e-001
7.791134e+002,4.608959e-001
7.810419e+002,4.570430e-001
7.829704e+002,4.536264e-001
7.848989e+002,4.504561e-001
7.868274e+002,4.479352e-001
7.887559e+002,4.453517e-001
7.906844e+002,4.432187e-001
7.926129e+002,4.412923e-001
7.945414e+002,4.392827e-001
7.964699e+002,4.373113e-001
7.983984e+002,4.358611e-001
8.003269e+002,4.344386e-001
8.022554e+002,4.332178e-001
8.041839e+002,4.321700e-001
8.061124e+002,4.318399e-001
8.080409e+002,4.316463e-001
8.099694e+002,4.317837e-001
8.118979e+002,4.323063e-001
8.138264e+002,4.331024e-001
8.157549e+002,4.340070e-001
8.176833e+002,4.355705e-001
8.196119e+002,4.372000e-001
8.215403e+002,4.390256e-001
8.234689e+002,4.416069e-001
8.253973e+002,4.446937e-001
8.273259e+002,4.476999e-001
8.292543e+002,4.509070e-001
8.311829e+002,4.541019e-001
8.331113e+002,4.570062e-001
8.350399e+002,4.599312e-001
8.369683e+002,4.630332e-001
8.388969e+002,4.660615e-001
8.408253e+002,4.688784e-001
8.427538e+002,4.713581e-001
8.446824e+002,4.741266e-001
8.466108e+002,4.772319e-001
8.485394e+002,4.806238e-001
8.504678e+002,4.835319e-001
8.523964e+002,4.864507e-001
8.543248e+002,4.894814e-001
8.562534e+002,4.923036e-001
8.581818e+002,4.949608e-001
8.601104e+002,4.976929e-001
8.620388e+002,4.999774e-001
8.639673e+002,5.024598e-001
8.658958e+002,5.060150e-001
8.678243e+002,5.098199e-001
8.697528e+002,5.139347e-001
8.716813e+002,5.188736e-001
8.736098e+002,5.237977e-001
8.755383e+002,5.280498e-001
8.774668e+002,5.320962e-001
8.793953e+002,5.364314e-001
8.813238e+002,5.408221e-001
8.832523e+002,5.457928e-001
8.851808e+002,5.517247e-001
8.871093e+002,5.586188e-001
8.890378e+002,5.665850e-001
8.909663e+002,5.752727e-001
8.928948e+002,5.845900e-001
8.948233e+002,5.948785e-001
8.967518e+002,6.060824e-001
8.986803e+002,6.177095e-001
9.006088e+002,6.302287e-001
9.025373e+002,6.431071e-001
9.044658e+002,6.567553e-001
9.063943e+002,6.713753e-001
9.083228e+002,6.873489e-001
9.102513e+002,7.041074e-001
9.121798e+002,7.224761e-001
9.141083e+002,7.419031e-001
9.160368e+002,7.620063e-001
9.179653e+002,7.827912e-001
9.198938e+002,8.050504e-001
9.218223e+002,8.276210e-001
9.237508e+002,8.515989e-001
9.256793e+002,8.757698e-001
9.276078e+002,9.018983e-001
9.295363e+002,9.292367e-001
9.314648e+002,9.579538e-001
9.333932e+002,9.866377e-001
9.353218e+002,1.015709e+000
9.372502e+002,1.043993e+000
9.391788e+002,1.073075e+000
9.411072e+002,1.101687e+000
9.430358e+002,1.132142e+000
9.449643e+002,1.162067e+000
9.468928e+002,1.193645e+000
9.488213e+002,1.225146e+000
9.507498e+002,1.257117e+000
9.526783e+002,1.287760e+000
9.546068e+002,1.322636e+000
9.565353e+002,1.358417e+000
9.584637e+002,1.395881e+000
9.603923e+002,1.429959e+000
9.623207e+002,1.466125e+000
9.642493e+002,1.498587e+000
9.661777e+002,1.533410e+000
9.681063e+002,1.563420e+000
9.700347e+002,1.597294e+000
9.719633e+002,1.627473e+000
9.738917e+002,1.659362e+000
9.758203e+002,1.687528e+000
9.777487e+002,1.713776e+000
9.796772e+002,1.734646e+000
9.816057e+002,1.763006e+000
9.835342e+002,1.785297e+000
9.854627e+002,1.813628e+000
9.873912e+002,1.834547e+000
9.893197e+002,1.856703e+000
9.912482e+002,1.868265e+000
9.931768e+002,1.891407e+000
9.951052e+002,1.905357e+000
9.970338e+002,1.921455e+000
9.989622e+002,1.931568e+000
1.000891e+003,1.949832e+000
1.002819e+003,1.950497e+000
1.004748e+003,1.954915e+000
1.006676e+003,1.954933e+000
1.008605e+003,1.961387e+000
1.010533e+003,1.946351e+000
1.012462e+003,1.928247e+000
1.014390e+003,1.900960e+000
1.016319e+003,1.880788e+000
1.018247e+003,1.848384e+000
1.020176e+003,1.818267e+000
1.022104e+003,1.783379e+000
1.024033e+003,1.756052e+000
1.025961e+003,1.718815e+000
1.027890e+003,1.687459e+000
1.029818e+003,1.657085e+000
1.031747e+003,1.633198e+000
1.033675e+003,1.605224e+000
1.035604e+003,1.584378e+000
1.037532e+003,1.561050e+000
1.039461e+003,1.542746e+000
1.041389e+003,1.521613e+000
1.043318e+003,1.504588e+000
1.045246e+003,1.488536e+000
1.047175e+003,1.475495e+000
1.049103e+003,1.458196e+000
1.051032e+003,1.443581e+000
1.052960e+003,1.427094e+000
1.054889e+003,1.412521e+000
1.056817e+003,1.392719e+000
1.058746e+003,1.373739e+000
1.060674e+003,1.350130e+000
1.062603e+003,1.325990e+000
1.064531e+003,1.297802e+000
1.066460e+003,1.269696e+000
1.068388e+003,1.239619e+000
1.070317e+003,1.214150e+000
1.072245e+003,1.188919e+000
1.074174e+003,1.166880e+000
1.076102e+003,1.146563e+000
1.078031e+003,1.127074e+000
1.079959e+003,1.107818e+000
1.081888e+003,1.092350e+000
1.083816e+003,1.076677e+000
1.085745e+003,1.063828e+000
1.087673e+003,1.052093e+000
1.089602e+003,1.041612e+000
1.091530e+003,1.030659e+000
1.093459e+003,1.022203e+000
1.095387e+003,1.012757e+000
1.097316e+003,1.004110e+000
1.099244e+003,9.950696e-001
1.101173e+003,9.862144e-001
1.103101e+003,9.764888e-001
1.105030e+003,9.676171e-001
1.106958e+003,9.574297e-001
1.108887e+003,9.482449e-001
1.110815e+003,9.382832e-001
1.112744e+003,9.277134e-001
1.114672e+003,9.165193e-001
1.116601e+003,9.063388e-001
1.118529e+003,8.948199e-001
1.120458e+003,8.830238e-001
1.122386e+003,8.705608e-001
1.124315e+003,8.588776e-001
1.126243e+003,8.466016e-001
1.128172e+003,8.344058e-001
1.130100e+003,8.226578e-001
1.132029e+003,8.113203e-001
1.133957e+003,7.992486e-001
1.135886e+003,7.883235e-001
1.137814e+003,7.776130e-001
1.139743e+003,7.679295e-001
1.141671e+003,7.583110e-001
1.143600e+003,7.494042e-001
1.145528e+003,7.406943e-001
1.147457e+003,7.325918e-001
1.149385e+003,7.242213e-001
1.151314e+003,7.161627e-001
1.153242e+003,7.084639e-001
1.155171e+003,7.014611e-001
1.157099e+003,6.941318e-001
1.159028e+003,6.873006e-001
1.160956e+003,6.806667e-001
1.162885e+003,6.744683e-001
1.164813e+003,6.683241e-001
1.166742e+003,6.625600e-001
1.168670e+003,6.568568e-001
1.170599e+003,6.516306e-001
1.172527e+003,6.464218e-001
1.174456e+003,6.411250e-001
1.176384e+003,6.353751e-001
1.178313e+003,6.298770e-001
1.180241e+003,6.244632e-001
1.182170e+003,6.195521e-001
1.184098e+003,6.146524e-001
1.186027e+003,6.100853e-001
1.187955e+003,6.053537e-001
1.189884e+003,6.009739e-001
1.191812e+003,5.969250e-001
1.193741e+003,5.930855e-001
1.195669e+003,5.893007e-001
1.197598e+003,5.857802e-001
1.199526e+003,5.818843e-001
1.201455e+003,5.779573e-001
1.203383e+003,5.742384e-001
1.205312e+003,5.705861e-001
1.207240e+003,5.668273e-001
1.209169e+003,5.631434e-001
1.211097e+003,5.596091e-001
1.213026e+003,5.566799e-001
1.214954e+003,5.539480e-001
1.216883e+003,5.511789e-001
1.218811e+003,5.486426e-001
1.220740e+003,5.463139e-001
1.222668e+003,5.437034e-001
1.224597e+003,5.411764e-001
1.226525e+003,5.383666e-001
1.228453e+003,5.354573e-001
1.230382e+003,5.327705e-001
1.232311e+003,5.301113e-001
1.234239e+003,5.275806e-001
1.236167e+003,5.253287e-001
1.238096e+003,5.232412e-001
1.240025e+003,5.213584e-001
1.241953e+003,5.193804e-001
1.243882e+003,5.176336e-001
1.245810e+003,5.156951e-001
1.247739e+003,5.133878e-001
1.249667e+003,5.110270e-001
1.251596e+003,5.087143e-001
1.253524e+003,5.063027e-001
1.255453e+003,5.042114e-001
1.257381e+003,5.022674e-001
1.259310e+003,5.004318e-001
1.261238e+003,4.986670e-001
1.263167e+003,4.971955e-001
1.265095e+003,4.958553e-001
1.267024e+003,4.943344e-001
1.268952e+003,4.927350e-001
1.270880e+003,4.910720e-001
1.272809e+003,4.892339e-001
1.274738e+003,4.873706e-001
1.276666e+003,4.854541e-001
1.278594e+003,4.835857e-001
1.280523e+003,4.818361e-001
1.282452e+003,4.802258e-001
1.284380e+003,4.788540e-001
1.286308e+003,4.776497e-001
1.288237e+003,4.764477e-001
1.290166e+003,4.752868e-001
1.292094e+003,4.740938e-001
1.294022e+003,4.728101e-001
1.295951e+003,4.714652e-001
1.297880e+003,4.700879e-001
1.299808e+003,4.686013e-001
1.301736e+003,4.670843e-001
1.303665e+003,4.656956e-001
1.305594e+003,4.646519e-001
1.307522e+003,4.637204e-001
1.309450e+003,4.629366e-001
1.311379e+003,4.622574e-001
1.313307e+003,4.618249e-001
1.315236e+003,4.611747e-001
1.317164e+003,4.603906e-001
1.319093e+003,4.597073e-001
1.321021e+003,4.585186e-001
1.322950e+003,4.570511e-001
1.324878e+003,4.559606e-001
1.326807e+003,4.550280e-001
1.328735e+003,4.542903e-001
1.330664e+003,4.536853e-001
1.332592e+003,4.532278e-001
1.334521e+003,4.530669e-001
1.336449e+003,4.528784e-001
1.338378e+003,4.529382e-001
1.340307e+003,4.534809e-001
1.342235e+003,4.530869e-001
1.344163e+003,4.525806e-001
1.346092e+003,4.524590e-001
1.348021e+003,4.525610e-001
1.349949e+003,4.528670e-001
1.351877e+003,4.530464e-001
1.353806e+003,4.533187e-001
1.355734e+003,4.538381e-001
1.357663e+003,4.542520e-001
1.359591e+003,4.549739e-001
1.361520e+003,4.560526e-001
1.363448e+003,4.571420e-001
1.365377e+003,4.571257e-001
1.367305e+003,4.570630e-001
1.369234e+003,4.573492e-001
1.371162e+003,4.571522e-001
1.373091e+003,4.572175e-001
1.375019e+003,4.580222e-001
1.376948e+003,4.577824e-001
1.378876e+003,4.578748e-001
1.380805e+003,4.580035e-001
1.382733e+003,4.581006e-001
1.384662e+003,4.581538e-001
1.386590e+003,4.588611e-001
1.388519e+003,4.597264e-001
1.390447e+003,4.592134e-001
1.392376e+003,4.587266e-001
1.394304e+003,4.594951e-001
1.396233e+003,4.604982e-001
1.398161e+003,4.604942e-001
1.400090e+003,4.610591e-001
1.402018e+003,4.607632e-001
1.403947e+003,4.611652e-001
1.405875e+003,4.621049e-001
1.407804e+003,4.620478e-001
1.409732e+003,4.620330e-001
1.411661e+003,4.623235e-001
1.413589e+003,4.620512e-001
1.415518e+003,4.613283e-001
1.417446e+003,4.606980e-001
1.419375e+003,4.608691e-001
1.421303e+003,4.597859e-001
1.423232e+003,4.586010e-001
1.425160e+003,4.580043e-001
1.427089e+003,4.567739e-001
1.429017e+003,4.564027e-001
1.430946e+003,4.560722e-001
1.432874e+003,4.548864e-001
1.434803e+003,4.534792e-001
1.436731e+003,4.537407e-001
1.438660e+003,4.530753e-001
1.440588e+003,4.517044e-001
1.442517e+003,4.510230e-001
1.444445e+003,4.505638e-001
1.446374e+003,4.503103e-001
1.448302e+003,4.509629e-001
1.450231e+003,4.510716e-001
1.452159e+003,4.507329e-001
1.454088e+003,4.502426e-001
1.456016e+003,4.503592e-001
1.457945e+003,4.534369e-001
1.459873e+003,4.522549e-001
1.461802e+003,4.506964e-001
1.463730e+003,4.503290e-001
1.465659e+003,4.519376e-001
1.467587e+003,4.519565e-001
1.469516e+003,4.516455e-001
1.471444e+003,4.521596e-001
1.473373e+003,4.552274e-001
1.475301e+003,4.551466e-001
1.477230e+003,4.548410e-001
1.479158e+003,4.541734e-001
1.481087e+003,4.539843e-001
1.483015e+003,4.534460e-001
1.484944e+003,4.524105e-001
1.486872e+003,4.518838e-001
1.488801e+003,4.517634e-001
1.490729e+003,4.522175e-001
1.492658e+003,4.506837e-001
1.494586e+003,4.490843e-001
1.496515e+003,4.495671e-001
1.498443e+003,4.498204e-001
1.500372e+003,4.488590e-001
1.502300e+003,4.474800e-001
1.504229e+003,4.457583e-001
1.506157e+003,4.458328e-001
1.508086e+003,4.484057e-001
1.510014e+003,4.455795e-001
1.511943e+003,4.437336e-001
1.513871e+003,4.423859e-001
1.515800e+003,4.415490e-001
1.517728e+003,4.418042e-001
1.519657e+003,4.406106e-001
1.521585e+003,4.422790e-001
1.523514e+003,4.415080e-001
1.525442e+003,4.397289e-001
1.527371e+003,4.390405e-001
1.529299e+003,4.376464e-001
1.531228e+003,4.359520e-001
1.533156e+003,4.357882e-001
1.535085e+003,4.355364e-001
1.537013e+003,4.331013e-001
1.538942e+003,4.319673e-001
1.540870e+003,4.346018e-001
1.542799e+003,4.339909e-001
1.544727e+003,4.332481e-001
1.546656e+003,4.319357e-001
1.548584e+003,4.304412e-001
1.550513e+003,4.304743e-001
1.552441e+003,4.292766e-001
1.554370e+003,4.289960e-001
1.556298e+003,4.277386e-001
1.558227e+003,4.274375e-001
1.560155e+003,4.308621e-001
1.562084e+003,4.277547e-001
1.564012e+003,4.264426e-001
1.565941e+003,4.266289e-001
1.567869e+003,4.261127e-001
1.569798e+003,4.283032e-001
1.571726e+003,4.282807e-001
1.573655e+003,4.272892e-001
1.575583e+003,4.283442e-001
1.577512e+003,4.304331e-001
1.579440e+003,4.292994e-001
1.581369e+003,4.293384e-001
1.583297e+003,4.298738e-001
1.585226e+003,4.307400e-001
1.587154e+003,4.316698e-001
1.589083e+003,4.331044e-001
1.591011e+003,4.345339e-001
1.592940e+003,4.360491e-001
1.594868e+003,4.377306e-001
1.596797e+003,4.394484e-001
1.598725e+003,4.406943e-001
1.600654e+003,4.427536e-001
1.602582e+003,4.449199e-001
1.604511e+003,4.472630e-001
1.606439e+003,4.496035e-001
1.608368e+003,4.536975e-001
1.610296e+003,4.577472e-001
1.612225e+003,4.620322e-001
1.614153e+003,4.652123e-001
1.616082e+003,4.719491e-001
1.618010e+003,4.808530e-001
1.619939e+003,4.843948e-001
1.621867e+003,4.887340e-001
1.623796e+003,4.984369e-001
1.625724e+003,5.031385e-001
1.627653e+003,5.088714e-001
1.629581e+003,5.151327e-001
1.631510e+003,5.195400e-001
1.633438e+003,5.226755e-001
1.635367e+003,5.310643e-001
1.637295e+003,5.405855e-001
1.639224e+003,5.436257e-001
1.641152e+003,5.480723e-001
1.643081e+003,5.533411e-001
1.645009e+003,5.569596e-001
1.646938e+003,5.646150e-001
1.648866e+003,5.641246e-001
1.650795e+003,5.606477e-001
1.652723e+003,5.598843e-001
1.654652e+003,5.616010e-001
1.656580e+003,5.575283e-001
1.658509e+003,5.549846e-001
1.660437e+003,5.527840e-001
1.662366e+003,5.515984e-001
1.664294e+003,5.492093e-001
1.666223e+003,5.455773e-001
1.668151e+003,5.424884e-001
1.670080e+003,5.395557e-001
1.672008e+003,5.349338e-001
1.673937e+003,5.301921e-001
1.675865e+003,5.253641e-001
1.677794e+003,5.202043e-001
1.679722e+003,5.152249e-001
1.681651e+003,5.105182e-001
1.683579e+003,5.060902e-001
1.685508e+003,5.012411e-001
1.687436e+003,4.962078e-001
1.689365e+003,4.913016e-001
1.691293e+003,4.860293e-001
1.693222e+003,4.814295e-001
1.695150e+003,4.773099e-001
1.697079e+003,4.733828e-001
1.699007e+003,4.688123e-001
1.700936e+003,4.635168e-001
1.702864e+003,4.589575e-001
1.704793e+003,4.547463e-001
1.706721e+003,4.507255e-001
1.708650e+003,4.467280e-001
1.710578e+003,4.432211e-001
1.712507e+003,4.400023e-001
1.714435e+003,4.378417e-001
1.716364e+003,4.352215e-001
1.718292e+003,4.326502e-001
1.720221e+003,4.287847e-001
1.722149e+003,4.256038e-001
1.724078e+003,4.227030e-001
1.726006e+003,4.198436e-001
1.727935e+003,4.170766e-001
1.729863e+003,4.150502e-001
1.731792e+003,4.127657e-001
1.733720e+003,4.116040e-001
1.735649e+003,4.101765e-001
1.737577e+003,4.076692e-001
1.739506e+003,4.063125e-001
1.741434e+003,4.047459e-001
1.743363e+003,4.031134e-001
1.745291e+003,4.016081e-001
1.747220e+003,3.997420e-001
1.749148e+003,3.983501e-001
1.751077e+003,3.967628e-001
1.753005e+003,3.948616e-001
1.754934e+003,3.926482e-001
1.756862e+003,3.919477e-001
1.758791e+003,3.906463e-001
1.760719e+003,3.895180e-001
1.762648e+003,3.891345e-001
1.764576e+003,3.878130e-001
1.766505e+003,3.862510e-001
1.768433e+003,3.856004e-001
1.770362e+003,3.842755e-001
1.772290e+003,3.843950e-001
1.774219e+003,3.831792e-001
1.776147e+003,3.815715e-001
1.778076e+003,3.801174e-001
1.780004e+003,3.794248e-001
1.781933e+003,3.787804e-001
1.783861e+003,3.779434e-001
1.785790e+003,3.774487e-001
1.787718e+003,3.765973e-001
1.789647e+003,3.756278e-001
1.791575e+003,3.758071e-001
1.793504e+003,3.758385e-001
1.795432e+003,3.744947e-001
1.797361e+003,3.732334e-001
1.799289e+003,3.723697e-001
1.801218e+003,3.718541e-001
1.803146e+003,3.709294e-001
1.805075e+003,3.698478e-001
1.807003e+003,3.692074e-001
1.808932e+003,3.686920e-001
1.810860e+003,3.686286e-001
1.812789e+003,3.681971e-001
1.814717e+003,3.673041e-001
1.816646e+003,3.666740e-001
1.818574e+003,3.660786e-001
1.820503e+003,3.653250e-001
1.822431e+003,3.644667e-001
1.824360e+003,3.638559e-001
1.826288e+003,3.636869e-001
1.828217e+003,3.627326e-001
1.830145e+003,3.633135e-001
1.832074e+003,3.626374e-001
1.834002e+003,3.616583e-001
1.835931e+003,3.611929e-001
1.837859e+003,3.610187e-001
1.839788e+003,3.603773e-001
1.841716e+003,3.595207e-001
1.843645e+003,3.595265e-001
1.845573e+003,3.597901e-001
1.847502e+003,3.586718e-001
1.849430e+003,3.580235e-001
1.851359e+003,3.573518e-001
1.853287e+003,3.568836e-001
1.855216e+003,3.564333e-001
1.857144e+003,3.563058e-001
1.859073e+003,3.561763e-001
1.861001e+003,3.560652e-001
1.862930e+003,3.555683e-001
1.864858e+003,3.550046e-001
1.866786e+003,3.546758e-001
1.868715e+003,3.553395e-001
1.870644e+003,3.550014e-001
1.872572e+003,3.540779e-001
1.874500e+003,3.534304e-001
1.876429e+003,3.531129e-001
1.878358e+003,3.528439e-001
1.880286e+003,3.526697e-001
1.882215e+003,3.524500e-001
1.884143e+003,3.523446e-001
1.886072e+003,3.520007e-001
1.888000e+003,3.516469e-001
1.889929e+003,3.518789e-001
1.891857e+003,3.515850e-001
1.893786e+003,3.511749e-001
1.895714e+003,3.512461e-001
1.897643e+003,3.508601e-001
1.899571e+003,3.504590e-001
1.901500e+003,3.501446e-001
1.903428e+003,3.502154e-001
1.905357e+003,3.500417e-001
1.907285e+003,3.498611e-001
1.909214e+003,3.498337e-001
1.911142e+003,3.497797e-001
1.913071e+003,3.493617e-001
1.914999e+003,3.490615e-001
1.916927e+003,3.489514e-001
1.918856e+003,3.492952e-001
1.920785e+003,3.487508e-001
1.922713e+003,3.490745e-001
1.924641e+003,3.489726e-001
1.926570e+003,3.485053e-001
1.928499e+003,3.483413e-001
1.930427e+003,3.482811e-001
1.932355e+003,3.480650e-001
1.934284e+003,3.480027e-001
1.936213e+003,3.478069e-001
1.938141e+003,3.477128e-001
1.940069e+003,3.474820e-001
1.941998e+003,3.478104e-001
1.943927e+003,3.481645e-001
1.945855e+003,3.479028e-001
1.947783e+003,3.477513e-001
1.949712e+003,3.476538e-001
1.951641e+003,3.474766e-001
1.953569e+003,3.472728e-001
1.955497e+003,3.471160e-001
1.957426e+003,3.470089e-001
1.959354e+003,3.468752e-001
1.961283e+003,3.467788e-001
1.963211e+003,3.466881e-001
1.965140e+003,3.467865e-001
1.967068e+003,3.469883e-001
1.968997e+003,3.470304e-001
1.970925e+003,3.469402e-001
1.972854e+003,3.469746e-001
1.974782e+003,3.467340e-001
1.976711e+003,3.465534e-001
1.978639e+003,3.463910e-001
1.980568e+003,3.462487e-001
1.982496e+003,3.461432e-001
1.984425e+003,3.462040e-001
1.986354e+003,3.460861e-001
1.988282e+003,3.461855e-001
1.990210e+003,3.462312e-001
1.992139e+003,3.465949e-001
1.994068e+003,3.465910e-001
1.995996e+003,3.465795e-001
1.997924e+003,3.466732e-001
1.999853e+003,3.465854e-001
2.001781e+003,3.463328e-001
2.003710e+003,3.462043e-001
2.005638e+003,3.459978e-001
2.007567e+003,3.458686e-001
2.009495e+003,3.458254e-001
2.011424e+003,3.459142e-001
2.013352e+003,3.460031e-001
2.015281e+003,3.461736e-001
2.017209e+003,3.465936e-001
2.019138e+003,3.468467e-001
2.021066e+003,3.467705e-001
2.022995e+003,3.467562e-001
2.024923e+003,3.466060e-001
2.026852e+003,3.463929e-001
2.028780e+003,3.461910e-001
2.030709e+003,3.460884e-001
2.032637e+003,3.461321e-001
2.034566e+003,3.462955e-001
2.036494e+003,3.464062e-001
2.038423e+003,3.465100e-001
2.040351e+003,3.467968e-001
2.042280e+003,3.472442e-001
2.044208e+003,3.472877e-001
2.046137e+003,3.472680e-001
2.048065e+003,3.471751e-001
2.049994e+003,3.471594e-001
2.051922e+003,3.469929e-001
2.053851e+003,3.469505e-001
2.055779e+003,3.469318e-001
2.057708e+003,3.469098e-001
2.059636e+003,3.470014e-001
2.061565e+003,3.473188e-001
2.063493e+003,3.476003e-001
2.065422e+003,3.480822e-001
2.067350e+003,3.482970e-001
2.069279e+003,3.483595e-001
2.071207e+003,3.484255e-001
2.073136e+003,3.484111e-001
2.075064e+003,3.482268e-001
2.076993e+003,3.480826e-001
2.078921e+003,3.479492e-001
2.080850e+003,3.479839e-001
2.082778e+003,3.480887e-001
2.084707e+003,3.483008e-001
2.086635e+003,3.485795e-001
2.088564e+003,3.489653e-001
2.090492e+003,3.492143e-001
2.092421e+003,3.493766e-001
2.094349e+003,3.494443e-001
2.096278e+003,3.494748e-001
2.098206e+003,3.492922e-001
2.100135e+003,3.490555e-001
2.102063e+003,3.488402e-001
2.103992e+003,3.486902e-001
2.105920e+003,3.485614e-001
2.107849e+003,3.487141e-001
2.109777e+003,3.489289e-001
2.111706e+003,3.492341e-001
2.113634e+003,3.495775e-001
2.115563e+003,3.498055e-001
2.117491e+003,3.497790e-001
2.119420e+003,3.496792e-001
2.121348e+003,3.494698e-001
2.123277e+003,3.492067e-001
2.125205e+003,3.489220e-001
2.127134e+003,3.488160e-001
2.129062e+003,3.487998e-001
2.130991e+003,3.488635e-001
2.132919e+003,3.489133e-001
2.134848e+003,3.490869e-001
2.136776e+003,3.492623e-001
2.138705e+003,3.495044e-001
2.140633e+003,3.495936e-001
2.142562e+003,3.496566e-001
2.144490e+003,3.495913e-001
2.146419e+003,3.493566e-001
2.148347e+003,3.491115e-001
2.150276e+003,3.488576e-001
2.152204e+003,3.486108e-001
2.154133e+003,3.486455e-001
2.156061e+003,3.486800e-001
2.157990e+003,3.488141e-001
2.159918e+003,3.488273e-001
2.161847e+003,3.489513e-001
2.163775e+003,3.492167e-001
2.165704e+003,3.493755e-001
2.167632e+003,3.493687e-001
2.169561e+003,3.492128e-001
2.171489e+003,3.487729e-001
2.173418e+003,3.483536e-001
2.175346e+003,3.479512e-001
2.177275e+003,3.478321e-001
2.179203e+003,3.478443e-001
2.181132e+003,3.479192e-001
2.183060e+003,3.479562e-001
2.184989e+003,3.480757e-001
2.186917e+003,3.482071e-001
2.188846e+003,3.483041e-001
2.190774e+003,3.483548e-001
2.192703e+003,3.482398e-001
2.194631e+003,3.478820e-001
2.196560e+003,3.475627e-001
2.198488e+003,3.473043e-001
2.200417e+003,3.471079e-001
2.202345e+003,3.468791e-001
2.204274e+003,3.467843e-001
2.206202e+003,3.467728e-001
2.208131e+003,3.468408e-001
2.210059e+003,3.470122e-001
2.211988e+003,3.470843e-001
2.213916e+003,3.468996e-001
2.215845e+003,3.468105e-001
2.217773e+003,3.466246e-001
2.219702e+003,3.463403e-001
2.221630e+003,3.459256e-001
2.223559e+003,3.455912e-001
2.225487e+003,3.452294e-001
2.227416e+003,3.450873e-001
2.229344e+003,3.450902e-001
2.231273e+003,3.452285e-001
2.233201e+003,3.453931e-001
2.235130e+003,3.454876e-001
2.237058e+003,3.453784e-001
2.238987e+003,3.451904e-001
2.240915e+003,3.450129e-001
2.242844e+003,3.447762e-001
2.244772e+003,3.443263e-001
2.246701e+003,3.439944e-001
2.248629e+003,3.437461e-001
2.250558e+003,3.435022e-001
2.252486e+003,3.433616e-001
2.254415e+003,3.433885e-001
2.256343e+003,3.433783e-001
2.258272e+003,3.434552e-001
2.260200e+003,3.434618e-001
2.262129e+003,3.433239e-001
2.264057e+003,3.430786e-001
2.265986e+003,3.428497e-001
2.267914e+003,3.425501e-001
2.269843e+003,3.422463e-001
2.271771e+003,3.418069e-001
2.273700e+003,3.415173e-001
2.275628e+003,3.414078e-001
2.277557e+003,3.413211e-001
2.279485e+003,3.412342e-001
2.281414e+003,3.413352e-001
2.283342e+003,3.413910e-001
2.285271e+003,3.413155e-001
2.287199e+003,3.410439e-001
2.289128e+003,3.408425e-001
2.291056e+003,3.406737e-001
2.292985e+003,3.404443e-001
2.294913e+003,3.400684e-001
2.296842e+003,3.396818e-001
2.298770e+003,3.394996e-001
2.300699e+003,3.395268e-001
2.302627e+003,3.394967e-001
2.304556e+003,3.395309e-001
2.306484e+003,3.395480e-001
2.308413e+003,3.396168e-001
2.310341e+003,3.394276e-001
2.312270e+003,3.392853e-001
2.314198e+003,3.391542e-001
2.316127e+003,3.389672e-001
2.318055e+003,3.386650e-001
2.319984e+003,3.385206e-001
2.321912e+003,3.382714e-001
2.323841e+003,3.381084e-001
2.325769e+003,3.380522e-001
2.327698e+003,3.382702e-001
2.329626e+003,3.385889e-001
2.331555e+003,3.385624e-001
2.333483e+003,3.381143e-001
2.335412e+003,3.379712e-001
2.337340e+003,3.378804e-001
2.339269e+003,3.376149e-001
2.341197e+003,3.372557e-001
2.343126e+003,3.372031e-001
2.345054e+003,3.372555e-001
2.346983e+003,3.370060e-001
2.348911e+003,3.360783e-001
2.350840e+003,3.356794e-001
2.352768e+003,3.359675e-001
2.354697e+003,3.359649e-001
2.356625e+003,3.354785e-001
2.358554e+003,3.355189e-001
2.360482e+003,3.353814e-001
2.362411e+003,3.353685e-001
2.364339e+003,3.359924e-001
2.366268e+003,3.361782e-001
2.368196e+003,3.354619e-001
2.370125e+003,3.351551e-001
2.372053e+003,3.350010e-001
2.373982e+003,3.348214e-001
2.375910e+003,3.345493e-001
2.377839e+003,3.344885e-001
2.379767e+003,3.342963e-001
2.381696e+003,3.339089e-001
2.383624e+003,3.334050e-001
2.385553e+003,3.329655e-001
2.387481e+003,3.326175e-001
2.389410e+003,3.323874e-001
2.391338e+003,3.320043e-001
2.393267e+003,3.318028e-001
2.395195e+003,3.318219e-001
2.397124e+003,3.318094e-001
2.399052e+003,3.317039e-001
2.400981e+003,3.316586e-001
2.402909e+003,3.316880e-001
2.404838e+003,3.316392e-001
2.406766e+003,3.314049e-001
2.408695e+003,3.310978e-001
2.410623e+003,3.308019e-001
2.412552e+003,3.305783e-001
2.414480e+003,3.303481e-001
2.416409e+003,3.302730e-001
2.418337e+003,3.302233e-001
2.420266e+003,3.301273e-001
2.422194e+003,3.300941e-001
2.424123e+003,3.301422e-001
2.426051e+003,3.300921e-001
2.427980e+003,3.300138e-001
2.429908e+003,3.299066e-001
2.431837e+003,3.297966e-001
2.433765e+003,3.293780e-001
2.435694e+003,3.290073e-001
2.437622e+003,3.287764e-001
2.439551e+003,3.286899e-001
2.441479e+003,3.286820e-001
2.443408e+003,3.286688e-001
2.445336e+003,3.286704e-001
2.447265e+003,3.286357e-001
2.449193e+003,3.285539e-001
2.451122e+003,3.284613e-001
2.453050e+003,3.283305e-001
2.454979e+003,3.281342e-001
2.456907e+003,3.278930e-001
2.458836e+003,3.276927e-001
2.460764e+003,3.273736e-001
2.462693e+003,3.271496e-001
2.464621e+003,3.270545e-001
2.466550e+003,3.270715e-001
2.468478e+003,3.271371e-001
2.470406e+003,3.271599e-001
2.472335e+003,3.271748e-001
2.474264e+003,3.272323e-001
2.476192e+003,3.273234e-001
2.478121e+003,3.271793e-001
2.480049e+003,3.268373e-001
2.481978e+003,3.265391e-001
2.483906e+003,3.263738e-001
2.485834e+003,3.261656e-001
2.487763e+003,3.259903e-001
2.489692e+003,3.260609e-001
2.491620e+003,3.261188e-001
2.493549e+003,3.261414e-001
2.495477e+003,3.261446e-001
2.497406e+003,3.261706e-001
2.499334e+003,3.261942e-001
2.501262e+003,3.261354e-001
2.503191e+003,3.259721e-001
2.505120e+003,3.257549e-001
2.507048e+003,3.254628e-001
2.508977e+003,3.252555e-001
2.510905e+003,3.251990e-001
2.512833e+003,3.252001e-001
2.514762e+003,3.250983e-001
2.516690e+003,3.250776e-001
2.518619e+003,3.251035e-001
2.520548e+003,3.252706e-001
2.522476e+003,3.253815e-001
2.524405e+003,3.253102e-001
2.526333e+003,3.250724e-001
2.528261e+003,3.247805e-001
2.530190e+003,3.245723e-001
2.532119e+003,3.242855e-001
2.534047e+003,3.240566e-001
2.535976e+003,3.239821e-001
2.537904e+003,3.239127e-001
2.539833e+003,3.240013e-001
2.541761e+003,3.241400e-001
2.543689e+003,3.243496e-001
2.545618e+003,3.244037e-001
2.547547e+003,3.242594e-001
2.549475e+003,3.241113e-001
2.551404e+003,3.239071e-001
2.553332e+003,3.235835e-001
2.555260e+003,3.233787e-001
2.557189e+003,3.231969e-001
2.559117e+003,3.230810e-001
2.561046e+003,3.230105e-001
2.562975e+003,3.230790e-001
2.564903e+003,3.232293e-001
2.566832e+003,3.234572e-001
2.568760e+003,3.235307e-001
2.570688e+003,3.236017e-001
2.572617e+003,3.235526e-001
2.574545e+003,3.234269e-001
2.576474e+003,3.230540e-001
2.578403e+003,3.227080e-001
2.580331e+003,3.225647e-001
2.582260e+003,3.225285e-001
2.584188e+003,3.224853e-001
2.586116e+003,3.226049e-001
2.588045e+003,3.228033e-001
2.589973e+003,3.228421e-001
2.591902e+003,3.228486e-001
2.593831e+003,3.229821e-001
2.595759e+003,3.230745e-001
2.597688e+003,3.231082e-001
2.599616e+003,3.229222e-001
2.601544e+003,3.225492e-001
2.603473e+003,3.222621e-001
2.605401e+003,3.222301e-001
2.607330e+003,3.222151e-001
2.609259e+003,3.222307e-001
2.611187e+003,3.223746e-001
2.613115e+003,3.226382e-001
2.615044e+003,3.228904e-001
2.616972e+003,3.231728e-001
2.618901e+003,3.232178e-001
2.620830e+003,3.230307e-001
2.622758e+003,3.230104e-001
2.624687e+003,3.229450e-001
2.626615e+003,3.226465e-001
2.628543e+003,3.225057e-001
2.630472e+003,3.225219e-001
2.632400e+003,3.224803e-001
2.634329e+003,3.225973e-001
2.636258e+003,3.228903e-001
2.638186e+003,3.230889e-001
2.640115e+003,3.233415e-001
2.642043e+003,3.234652e-001
2.643971e+003,3.233376e-001
2.645900e+003,3.232036e-001
2.647828e+003,3.232288e-001
2.649757e+003,3.230848e-001
2.651686e+003,3.228166e-001
2.653614e+003,3.226560e-001
2.655542e+003,3.226465e-001
2.657471e+003,3.228427e-001
2.659399e+003,3.230643e-001
2.661328e+003,3.232132e-001
2.663256e+003,3.234773e-001
2.665185e+003,3.237657e-001
2.667114e+003,3.239990e-001
2.669042e+003,3.240848e-001
2.670970e+003,3.240122e-001
2.672899e+003,3.238058e-001
2.674827e+003,3.236089e-001
2.676756e+003,3.234943e-001
2.678684e+003,3.234932e-001
2.680613e+003,3.236519e-001
2.682542e+003,3.238442e-001
2.684470e+003,3.240475e-001
2.686398e+003,3.243064e-001
2.688327e+003,3.245147e-001
2.690255e+003,3.246531e-001
2.692184e+003,3.247095e-001
2.694112e+003,3.247803e-001
2.696041e+003,3.248528e-001
2.697969e+003,3.246863e-001
2.699898e+003,3.244988e-001
2.701826e+003,3.245267e-001
2.703755e+003,3.246838e-001
2.705683e+003,3.248510e-001
2.707612e+003,3.251153e-001
2.709540e+003,3.254105e-001
2.711469e+003,3.257083e-001
2.713397e+003,3.259914e-001
2.715326e+003,3.261710e-001
2.717254e+003,3.262389e-001
2.719183e+003,3.262345e-001
2.721111e+003,3.263271e-001
2.723040e+003,3.264588e-001
2.724969e+003,3.265608e-001
2.726897e+003,3.265359e-001
2.728825e+003,3.263714e-001
2.730754e+003,3.264058e-001
2.732682e+003,3.268666e-001
2.734611e+003,3.272489e-001
2.736539e+003,3.276301e-001
2.738468e+003,3.278720e-001
2.740396e+003,3.279122e-001
2.742325e+003,3.279289e-001
2.744253e+003,3.280089e-001
2.746182e+003,3.281921e-001
2.748110e+003,3.283126e-001
2.750039e+003,3.283892e-001
2.751967e+003,3.284139e-001
2.753896e+003,3.286708e-001
2.755824e+003,3.290109e-001
2.757753e+003,3.293150e-001
2.759681e+003,3.297218e-001
2.761610e+003,3.300678e-001
2.763538e+003,3.303034e-001
2.765467e+003,3.304144e-001
2.767395e+003,3.303576e-001
2.769324e+003,3.303971e-001
2.771252e+003,3.306826e-001
2.773181e+003,3.310155e-001
2.775109e+003,3.312407e-001
2.777038e+003,3.312594e-001
2.778966e+003,3.315639e-001
2.780895e+003,3.320901e-001
2.782823e+003,3.324785e-001
2.784752e+003,3.327985e-001
2.786680e+003,3.334026e-001
2.788609e+003,3.338450e-001
2.790537e+003,3.339075e-001
2.792466e+003,3.340082e-001
2.794394e+003,3.342598e-001
2.796323e+003,3.345011e-001
2.798251e+003,3.346630e-001
2.800180e+003,3.347903e-001
2.802108e+003,3.351024e-001
2.804037e+003,3.357120e-001
2.805965e+003,3.362778e-001
2.807894e+003,3.367394e-001
2.809822e+003,3.372428e-001
2.811751e+003,3.375143e-001
2.813679e+003,3.377691e-001
2.815608e+003,3.380681e-001
2.817536e+003,3.383183e-001
2.819465e+003,3.385554e-001
2.821393e+003,3.389075e-001
2.823322e+003,3.394823e-001
2.825250e+003,3.399515e-001
2.827179e+003,3.404761e-001
2.829107e+003,3.410464e-001
2.831036e+003,3.417354e-001
2.832964e+003,3.425477e-001
2.834893e+003,3.432037e-001
2.836821e+003,3.437860e-001
2.838750e+003,3.442040e-001
2.840678e+003,3.443893e-001
2.842607e+003,3.446874e-001
2.844535e+003,3.451581e-001
2.846464e+003,3.458835e-001
2.848392e+003,3.464799e-001
2.850321e+003,3.469413e-001
2.852249e+003,3.477108e-001
2.854178e+003,3.486868e-001
2.856106e+003,3.495255e-001
2.858035e+003,3.501224e-001
2.859963e+003,3.505477e-001
2.861892e+003,3.508096e-001
2.863820e+003,3.513620e-001
2.865749e+003,3.519948e-001
2.867677e+003,3.523932e-001
2.869606e+003,3.529144e-001
2.871534e+003,3.536972e-001
2.873463e+003,3.545054e-001
2.875391e+003,3.551158e-001
2.877320e+003,3.556933e-001
2.879248e+003,3.564211e-001
2.881177e+003,3.570953e-001
2.883105e+003,3.577834e-001
2.885034e+003,3.584248e-001
2.886962e+003,3.590300e-001
2.888891e+003,3.595766e-001
2.890819e+003,3.601840e-001
2.892748e+003,3.609340e-001
2.894676e+003,3.618073e-001
2.896605e+003,3.623980e-001
2.898533e+003,3.631603e-001
2.900462e+003,3.641995e-001
2.902390e+003,3.652617e-001
2.904319e+003,3.662388e-001
2.906247e+003,3.671300e-001
2.908176e+003,3.679304e-001
2.910104e+003,3.686558e-001
2.912033e+003,3.694280e-001
2.913961e+003,3.703430e-001
2.915890e+003,3.711761e-001
2.917818e+003,3.719821e-001
2.919747e+003,3.727043e-001
2.921675e+003,3.737021e-001
2.923604e+003,3.748384e-001
2.925532e+003,3.758102e-001
2.927461e+003,3.769137e-001
2.929389e+003,3.779758e-001
2.931318e+003,3.788292e-001
2.933246e+003,3.796289e-001
2.935175e+003,3.804517e-001
2.937103e+003,3.812778e-001
2.939032e+003,3.820624e-001
2.940960e+003,3.830983e-001
2.942889e+003,3.844286e-001
2.944817e+003,3.856907e-001
2.946746e+003,3.867133e-001
2.948674e+003,3.878078e-001
2.950603e+003,3.891805e-001
2.952531e+003,3.904905e-001
2.954460e+003,3.914348e-001
2.956388e+003,3.921544e-001
2.958317e+003,3.931286e-001
2.960245e+003,3.943665e-001
2.962174e+003,3.956143e-001
2.964102e+003,3.968436e-001
2.966031e+003,3.980011e-001
2.967959e+003,3.990508e-001
2.969888e+003,4.003815e-001
2.971816e+003,4.021028e-001
2.973745e+003,4.037381e-001
2.975673e+003,4.051426e-001
2.977602e+003,4.067889e-001
2.979530e+003,4.081592e-001
2.981459e+003,4.092143e-001
2.983387e+003,4.104319e-001
2.985316e+003,4.118664e-001
2.987244e+003,4.132898e-001
2.989173e+003,4.148590e-001
2.991101e+003,4.165174e-001
2.993030e+003,4.180468e-001
2.994958e+003,4.196607e-001
2.996887e+003,4.215688e-001
2.998815e+003,4.233199e-001
3.000744e+003,4.248646e-001
3.002672e+003,4.264265e-001
3.004601e+003,4.282825e-001
3.006529e+003,4.299435e-001
3.008458e+003,4.316658e-001
3.010386e+003,4.335410e-001
3.012315e+003,4.355110e-001
3.014243e+003,4.373956e-001
3.016172e+003,4.391918e-001
3.018100e+003,4.409756e-001
3.020029e+003,4.426571e-001
3.021957e+003,4.446463e-001
3.023886e+003,4.468191e-001
3.025814e+003,4.487984e-001
3.027743e+003,4.507436e-001
3.029671e+003,4.527171e-001
3.031600e+003,4.549252e-001
3.033528e+003,4.569242e-001
3.035457e+003,4.586731e-001
3.037385e+003,4.605703e-001
3.039314e+003,4.626856e-001
3.041242e+003,4.647586e-001
3.043171e+003,4.667932e-001
3.045099e+003,4.691355e-001
3.047028e+003,4.714847e-001
3.048956e+003,4.740547e-001
3.050885e+003,4.764036e-001
3.052813e+003,4.781669e-001
3.054742e+003,4.801164e-001
3.056670e+003,4.824884e-001
3.058599e+003,4.849304e-001
3.060527e+003,4.871453e-001
3.062456e+003,4.891793e-001
3.064384e+003,4.916714e-001
3.066313e+003,4.942301e-001
3.068241e+003,4.965737e-001
3.070170e+003,4.989190e-001
3.072098e+003,5.013261e-001
3.074027e+003,5.037389e-001
3.075955e+003,5.063163e-001
3.077884e+003,5.088381e-001
3.079812e+003,5.113800e-001
3.081741e+003,5.138868e-001
3.083669e+003,5.163499e-001
3.085598e+003,5.188287e-001
3.087526e+003,5.212740e-001
3.089455e+003,5.236989e-001
3.091383e+003,5.263218e-001
3.093312e+003,5.288975e-001
3.095240e+003,5.315545e-001
3.097169e+003,5.342633e-001
3.099097e+003,5.368264e-001
3.101026e+003,5.394923e-001
3.102954e+003,5.419477e-001
3.104883e+003,5.442182e-001
3.106811e+003,5.469097e-001
3.108740e+003,5.496894e-001
3.110668e+003,5.520844e-001
3.112597e+003,5.550089e-001
3.114525e+003,5.579257e-001
3.116454e+003,5.607430e-001
3.118382e+003,5.638370e-001
3.120311e+003,5.666292e-001
3.122239e+003,5.691682e-001
3.124167e+003,5.718423e-001
3.126096e+003,5.743309e-001
3.128025e+003,5.771123e-001
3.129953e+003,5.796900e-001
3.131882e+003,5.824518e-001
3.133810e+003,5.855520e-001
3.135739e+003,5.886109e-001
3.137667e+003,5.913506e-001
3.139595e+003,5.940996e-001
3.141524e+003,5.968266e-001
3.143453e+003,6.000032e-001
3.145381e+003,6.028247e-001
3.147310e+003,6.056610e-001
3.149238e+003,6.088036e-001
3.151167e+003,6.117125e-001
3.153095e+003,6.141646e-001
3.155023e+003,6.167471e-001
3.156952e+003,6.196379e-001
3.158881e+003,6.226445e-001
3.160809e+003,6.255531e-001
3.162738e+003,6.287426e-001
3.164666e+003,6.314358e-001
3.166594e+003,6.338191e-001
3.168523e+003,6.368548e-001
3.170452e+003,6.400814e-001
3.172380e+003,6.430464e-001
3.174309e+003,6.459404e-001
3.176237e+003,6.483195e-001
3.178166e+003,6.509902e-001
3.180094e+003,6.535128e-001
3.182022e+003,6.565053e-001
3.183951e+003,6.598971e-001
3.185880e+003,6.630732e-001
3.187808e+003,6.659082e-001
3.189737e+003,6.690542e-001
3.191665e+003,6.719841e-001
3.193594e+003,6.744311e-001
3.195522e+003,6.770492e-001
3.197450e+003,6.799814e-001
3.199379e+003,6.826727e-001
3.201308e+003,6.852711e-001
3.203236e+003,6.878063e-001
3.205165e+003,6.906592e-001
3.207093e+003,6.934845e-001
3.209021e+003,6.964241e-001
3.210950e+003,6.991141e-001
3.212878e+003,7.017339e-001
3.214807e+003,7.045284e-001
3.216736e+003,7.068464e-001
3.218664e+003,7.090914e-001
3.220593e+003,7.116420e-001
3.222521e+003,7.139563e-001
3.224449e+003,7.163814e-001
3.226378e+003,7.190297e-001
3.228306e+003,7.215887e-001
3.230235e+003,7.239189e-001
3.232164e+003,7.263480e-001
3.234092e+003,7.286651e-001
3.236021e+003,7.309181e-001
3.237949e+003,7.327352e-001
3.239877e+003,7.344489e-001
3.241806e+003,7.366291e-001
3.243734e+003,7.392250e-001
3.245663e+003,7.413791e-001
3.247592e+003,7.429125e-001
3.249520e+003,7.445764e-001
3.251448e+003,7.463769e-001
3.253377e+003,7.484113e-001
3.255305e+003,7.497526e-001
3.257234e+003,7.512590e-001
3.259162e+003,7.535987e-001
3.261091e+003,7.556497e-001
3.263020e+003,7.572258e-001
3.264948e+003,7.589076e-001
3.266876e+003,7.605805e-001
3.268805e+003,7.621589e-001
3.270733e+003,7.635797e-001
3.272662e+003,7.648259e-001
3.274591e+003,7.662904e-001
3.276519e+003,7.674698e-001
3.278448e+003,7.686124e-001
3.280376e+003,7.702125e-001
3.282304e+003,7.719868e-001
3.284233e+003,7.729846e-001
3.286161e+003,7.742980e-001
3.288090e+003,7.763919e-001
3.290019e+003,7.781675e-001
3.291947e+003,7.794803e-001
3.293875e+003,7.808105e-001
3.295804e+003,7.824223e-001
3.297732e+003,7.841685e-001
3.299661e+003,7.859125e-001
3.301589e+003,7.877353e-001
3.303518e+003,7.890165e-001
3.305447e+003,7.901847e-001
3.307375e+003,7.917178e-001
3.309303e+003,7.934083e-001
3.311232e+003,7.950743e-001
3.313160e+003,7.969308e-001
3.315089e+003,7.985605e-001
3.317017e+003,7.996816e-001
3.318946e+003,8.012724e-001
3.320875e+003,8.033544e-001
3.322803e+003,8.050327e-001
3.324731e+003,8.064731e-001
3.326660e+003,8.084351e-001
3.328588e+003,8.103813e-001
3.330517e+003,8.119659e-001
3.332445e+003,8.134412e-001
3.334374e+003,8.154492e-001
3.336302e+003,8.176523e-001
3.338231e+003,8.187943e-001
3.340159e+003,8.202222e-001
3.342088e+003,8.224524e-001
3.344016e+003,8.247561e-001
3.345945e+003,8.267624e-001
3.347873e+003,8.283948e-001
3.349802e+003,8.297974e-001
3.351730e+003,8.311629e-001
3.353659e+003,8.326432e-001
3.355587e+003,8.345988e-001
3.357516e+003,8.366272e-001
3.359444e+003,8.383480e-001
3.361373e+003,8.398303e-001
3.363302e+003,8.410287e-001
3.365230e+003,8.427379e-001
3.367158e+003,8.444216e-001
3.369087e+003,8.452333e-001
3.371015e+003,8.462262e-001
3.372944e+003,8.475367e-001
3.374872e+003,8.494220e-001
3.376801e+003,8.508385e-001
3.378729e+003,8.517280e-001
3.380658e+003,8.534519e-001
3.382586e+003,8.541625e-001
3.384515e+003,8.547331e-001
3.386443e+003,8.564898e-001
3.388372e+003,8.581770e-001
3.390300e+003,8.587603e-001
3.392229e+003,8.597206e-001
3.394157e+003,8.607483e-001
3.396086e+003,8.617913e-001
3.398014e+003,8.627024e-001
3.399943e+003,8.628349e-001
3.401871e+003,8.627034e-001
3.403800e+003,8.626615e-001
3.405728e+003,8.634326e-001
3.407657e+003,8.642709e-001
3.409585e+003,8.650472e-001
3.411514e+003,8.650995e-001
3.413442e+003,8.647605e-001
3.415371e+003,8.645060e-001
3.417299e+003,8.642114e-001
3.419228e+003,8.640047e-001
3.421156e+003,8.640471e-001
3.423085e+003,8.642457e-001
3.425013e+003,8.634692e-001
3.426942e+003,8.627629e-001
3.428870e+003,8.628604e-001
3.430799e+003,8.622413e-001
3.432727e+003,8.612952e-001
3.434656e+003,8.603294e-001
3.436584e+003,8.594793e-001
3.438513e+003,8.585227e-001
3.440441e+003,8.571951e-001
3.442370e+003,8.565481e-001
3.444298e+003,8.553441e-001
3.446227e+003,8.550585e-001
3.448155e+003,8.545732e-001
3.450084e+003,8.523479e-001
3.452012e+003,8.510339e-001
3.453941e+003,8.507274e-001
3.455869e+003,8.498514e-001
3.457798e+003,8.486603e-001
3.459726e+003,8.473366e-001
3.461655e+003,8.456327e-001
3.463583e+003,8.440715e-001
3.465512e+003,8.436004e-001
3.467440e+003,8.421761e-001
3.469369e+003,8.398914e-001
3.471297e+003,8.380733e-001
3.473226e+003,8.370974e-001
3.475154e+003,8.361374e-001
3.477083e+003,8.345400e-001
3.479011e+003,8.324118e-001
3.480940e+003,8.307725e-001
3.482868e+003,8.303645e-001
3.484797e+003,8.290556e-001
3.486725e+003,8.275787e-001
3.488654e+003,8.263127e-001
3.490582e+003,8.245047e-001
3.492511e+003,8.230236e-001
3.494439e+003,8.208752e-001
3.496368e+003,8.184987e-001
3.498296e+003,8.164891e-001
3.500225e+003,8.154101e-001
3.502153e+003,8.146217e-001
3.504082e+003,8.139057e-001
3.506010e+003,8.115194e-001
3.507939e+003,8.093063e-001
3.509867e+003,8.081743e-001
3.511796e+003,8.058971e-001
3.513724e+003,8.042663e-001
3.515653e+003,8.025836e-001
3.517581e+003,8.012236e-001
3.519510e+003,8.001959e-001
3.521438e+003,7.977887e-001
3.523367e+003,7.960229e-001
3.525295e+003,7.942268e-001
3.527224e+003,7.929431e-001
3.529152e+003,7.914819e-001
3.531081e+003,7.892830e-001
3.533009e+003,7.871252e-001
3.534938e+003,7.850896e-001
3.536866e+003,7.822630e-001
3.538795e+003,7.805763e-001
3.540723e+003,7.787227e-001
3.542652e+003,7.758569e-001
3.544580e+003,7.745251e-001
3.546509e+003,7.730355e-001
3.548437e+003,7.702435e-001
3.550366e+003,7.678134e-001
3.552294e+003,7.659658e-001
3.554223e+003,7.631474e-001
3.556151e+003,7.599534e-001
3.558080e+003,7.575723e-001
3.560008e+003,7.546915e-001
3.561937e+003,7.519007e-001
3.563865e+003,7.481533e-001
3.565794e+003,7.453359e-001
3.567722e+003,7.442625e-001
3.569651e+003,7.401693e-001
3.571579e+003,7.357685e-001
3.573508e+003,7.319993e-001
3.575436e+003,7.287385e-001
3.577365e+003,7.247568e-001
3.579293e+003,7.208416e-001
3.581222e+003,7.170129e-001
3.583150e+003,7.131607e-001
3.585079e+003,7.096379e-001
3.587007e+003,7.064873e-001
3.588936e+003,7.020125e-001
3.590864e+003,6.963719e-001
3.592793e+003,6.922686e-001
3.594721e+003,6.884496e-001
3.596650e+003,6.844121e-001
3.598578e+003,6.803734e-001
3.600507e+003,6.769924e-001
3.602435e+003,6.718106e-001
3.604364e+003,6.664507e-001
3.606292e+003,6.619440e-001
3.608221e+003,6.582520e-001
3.610149e+003,6.531877e-001
3.612078e+003,6.495435e-001
3.614006e+003,6.462189e-001
3.615935e+003,6.407518e-001
3.617863e+003,6.351070e-001
3.619792e+003,6.308445e-001
3.621720e+003,6.255897e-001
3.623649e+003,6.201623e-001
3.625577e+003,6.147065e-001
3.627506e+003,6.107492e-001
3.629434e+003,6.082707e-001
3.631363e+003,6.013730e-001
3.633291e+003,5.956495e-001
3.635220e+003,5.906088e-001
3.637148e+003,5.851173e-001
3.639077e+003,5.807195e-001
3.641005e+003,5.757803e-001
3.642934e+003,5.709032e-001
3.644862e+003,5.654798e-001
3.646791e+003,5.616108e-001
3.648719e+003,5.590122e-001
3.650648e+003,5.560265e-001
3.652576e+003,5.489629e-001
3.654505e+003,5.438552e-001
3.656433e+003,5.405806e-001
3.658362e+003,5.358816e-001
3.660290e+003,5.308090e-001
3.662219e+003,5.270633e-001
3.664147e+003,5.231928e-001
3.666076e+003,5.193766e-001
3.668004e+003,5.160406e-001
3.669933e+003,5.150430e-001
3.671861e+003,5.101972e-001
3.673790e+003,5.052468e-001
3.675718e+003,5.057803e-001
3.677647e+003,5.023865e-001
3.679575e+003,4.976735e-001
3.681504e+003,4.939516e-001
3.683432e+003,4.911087e-001
3.685361e+003,4.887522e-001
3.687289e+003,4.863100e-001
3.689218e+003,4.861032e-001
3.691146e+003,4.838926e-001
3.693075e+003,4.816087e-001
3.695003e+003,4.793363e-001
3.696932e+003,4.775599e-001
3.698860e+003,4.748726e-001
3.700789e+003,4.740873e-001
3.702717e+003,4.735482e-001
3.704646e+003,4.707033e-001
3.706574e+003,4.684696e-001
3.708503e+003,4.673266e-001
3.710431e+003,4.679495e-001
3.712360e+003,4.683995e-001
3.714288e+003,4.653277e-001
3.716217e+003,4.626859e-001
3.718145e+003,4.613012e-001
3.720074e+003,4.607147e-001
3.722002e+003,4.605832e-001
3.723931e+003,4.602365e-001
3.725859e+003,4.595306e-001
3.727788e+003,4.591343e-001
3.729716e+003,4.564469e-001
3.731645e+003,4.554308e-001
3.733573e+003,4.554951e-001
3.735502e+003,4.572425e-001
3.737430e+003,4.558209e-001
3.739359e+003,4.536482e-001
3.741287e+003,4.516409e-001
3.743216e+003,4.504391e-001
3.745144e+003,4.542628e-001
3.747073e+003,4.521870e-001
3.749001e+003,4.509553e-001
3.750930e+003,4.533857e-001
3.752858e+003,4.527014e-001
3.754787e+003,4.498876e-001
3.756715e+003,4.481895e-001
3.758644e+003,4.482380e-001
3.760572e+003,4.486636e-001
3.762500e+003,4.470448e-001
3.764429e+003,4.461973e-001
3.766358e+003,4.468133e-001
3.768286e+003,4.456226e-001
3.770215e+003,4.468630e-001
3.772143e+003,4.458421e-001
3.774072e+003,4.442465e-001
3.776000e+003,4.432973e-001
3.777928e+003,4.431939e-001
3.779857e+003,4.442142e-001
3.781786e+003,4.432164e-001
3.783714e+003,4.424421e-001
3.785643e+003,4.429497e-001
3.787571e+003,4.418290e-001
3.789500e+003,4.407304e-001
3.791428e+003,4.401732e-001
3.793356e+003,4.397477e-001
3.795285e+003,4.394613e-001
3.797214e+003,4.410621e-001
3.799142e+003,4.391912e-001
3.801071e+003,4.419249e-001
3.802999e+003,4.424256e-001
3.804927e+003,4.386188e-001
3.806856e+003,4.396892e-001
3.808785e+003,4.395727e-001
3.810713e+003,4.377731e-001
3.812642e+003,4.367411e-001
3.814570e+003,4.356264e-001
3.816499e+003,4.380987e-001
3.818427e+003,4.360735e-001
3.820355e+003,4.372080e-001
3.822284e+003,4.394833e-001
3.824213e+003,4.363511e-001
3.826141e+003,4.356014e-001
3.828070e+003,4.359994e-001
3.829998e+003,4.348137e-001
3.831927e+003,4.349696e-001
3.833855e+003,4.340178e-001
3.835783e+003,4.335293e-001
3.837712e+003,4.341710e-001
3.839641e+003,4.354016e-001
3.841569e+003,4.346096e-001
3.843498e+003,4.348453e-001
3.845426e+003,4.338464e-001
3.847354e+003,4.324767e-001
3.849283e+003,4.314624e-001
3.851211e+003,4.297625e-001
3.853140e+003,4.327682e-001
3.855069e+003,4.349570e-001
3.856997e+003,4.332990e-001
3.858926e+003,4.319118e-001
3.860854e+003,4.311397e-001
3.862782e+003,4.317099e-001
3.864711e+003,4.328431e-001
3.866639e+003,4.314972e-001
3.868568e+003,4.292949e-001
3.870497e+003,4.332620e-001
3.872425e+003,4.310416e-001
3.874354e+003,4.313212e-001
3.876282e+003,4.302556e-001
3.878210e+003,4.282764e-001
3.880139e+003,4.294718e-001
3.882067e+003,4.300836e-001
3.883996e+003,4.281796e-001
3.885925e+003,4.309869e-001
3.887853e+003,4.297062e-001
3.889781e+003,4.282006e-001
3.891710e+003,4.302331e-001
3.893638e+003,4.298932e-001
3.895567e+003,4.281000e-001
3.897495e+003,4.274875e-001
3.899424e+003,4.285249e-001
3.901353e+003,4.286758e-001
3.903281e+003,4.287223e-001
3.905209e+003,4.295541e-001
3.907138e+003,4.281861e-001
3.909066e+003,4.270103e-001
3.910995e+003,4.267118e-001
3.912924e+003,4.268251e-001
3.914852e+003,4.263465e-001
3.916781e+003,4.275598e-001
3.918709e+003,4.276353e-001
3.920637e+003,4.271571e-001
3.922566e+003,4.258337e-001
3.924494e+003,4.264419e-001
3.926423e+003,4.265012e-001
3.928352e+003,4.258367e-001
3.930280e+003,4.262019e-001
3.932208e+003,4.270085e-001
3.934137e+003,4.266650e-001
3.936065e+003,4.261650e-001
3.937994e+003,4.260527e-001
3.939922e+003,4.253514e-001
3.941851e+003,4.254786e-001
3.943780e+003,4.264829e-001
3.945708e+003,4.255749e-001
3.947636e+003,4.254053e-001
3.949565e+003,4.260104e-001
3.951493e+003,4.261327e-001
3.953422e+003,4.255109e-001
3.955350e+003,4.250266e-001
3.957279e+003,4.249482e-001
3.959208e+003,4.248659e-001
3.961136e+003,4.247034e-001
3.963064e+003,4.244695e-001
3.964993e+003,4.237910e-001
3.966921e+003,4.240660e-001
3.968850e+003,4.246444e-001
3.970778e+003,4.248852e-001
3.972707e+003,4.248705e-001
3.974635e+003,4.245021e-001
3.976564e+003,4.243197e-001
3.978492e+003,4.246178e-001
3.980421e+003,4.241565e-001
3.982349e+003,4.238828e-001
3.984278e+003,4.237398e-001
3.986206e+003,4.237249e-001
3.988135e+003,4.233112e-001
3.990063e+003,4.234832e-001
3.991992e+003,4.235795e-001
3.993920e+003,4.236368e-001
3.995849e+003,4.237564e-001
3.997777e+003,4.238395e-001
3.999706e+003,4.232835e-001
